0	-2,39622063492063	-1,22100122100122	-10,989010989011	1,22100122100122	
0,001	-2,39622063492063	-1,22100122100122	-15,8730158730158	6,10500610500608	
0,002	-2,39622063492063	3,66300366300365	-1,22100122100122	6,10500610500608	
0,003	-2,39622063492063	3,66300366300365	8,54700854700852	6,10500610500608	
0,004	-3,13988852258851	3,66300366300365	3,66300366300365	6,10500610500608	
0,005	-3,13988852258851	3,66300366300365	3,66300366300365	1,22100122100122	
0,006	-3,13988852258851	-1,22100122100122	3,66300366300365	1,22100122100122	
0,007	-3,13988852258851	-1,22100122100122	3,66300366300365	1,22100122100122	
0,008	-3,13988852258851	3,66300366300365	18,3150183150183	-3,66300366300365	
0,009	-3,13988852258851	-6,10500610500608	3,66300366300365	-3,66300366300365	
0,01	-2,39622063492063	3,66300366300365	-6,10500610500608	-3,66300366300365	
0,011	-2,39622063492063	3,66300366300365	8,54700854700852	1,22100122100122	
0,012	-3,13988852258851	-1,22100122100122	8,54700854700852	1,22100122100122	
0,013	-3,13988852258851	-1,22100122100122	-1,22100122100122	1,22100122100122	
0,014	-3,13988852258851	-1,22100122100122	-6,10500610500608	1,22100122100122	
0,015	-3,13988852258851	-1,22100122100122	-6,10500610500608	1,22100122100122	
0,016	-3,13988852258851	3,66300366300365	-10,989010989011	1,22100122100122	
0,017	-3,13988852258851	3,66300366300365	-6,10500610500608	-3,66300366300365	
0,018	-3,13988852258851	-1,22100122100122	-10,989010989011	1,22100122100122	
0,019	-3,13988852258851	-1,22100122100122	-40,2930402930402	1,22100122100122	
0,02	-3,13988852258851	-1,22100122100122	-15,8730158730158	6,10500610500608	
0,021	-3,13988852258851	3,66300366300365	-1,22100122100122	1,22100122100122	
0,022	-3,13988852258851	3,66300366300365	-6,10500610500608	-3,66300366300365	
0,023	-2,39622063492063	-1,22100122100122	-6,10500610500608	-3,66300366300365	
0,024	-3,13988852258851	3,66300366300365	3,66300366300365	1,22100122100122	
0,025	-3,13988852258851	-1,22100122100122	8,54700854700852	-8,54700854700852	
0,026	-3,13988852258851	-1,22100122100122	28,083028083028	-3,66300366300365	
0,027	-3,13988852258851	-6,10500610500608	18,3150183150183	-3,66300366300365	
0,028	-2,39622063492063	-1,22100122100122	3,66300366300365	1,22100122100122	
0,029	-3,13988852258851	3,66300366300365	-6,10500610500608	1,22100122100122	
0,03	-3,13988852258851	3,66300366300365	-1,22100122100122	1,22100122100122	
0,031	-3,13988852258851	3,66300366300365	3,66300366300365	-3,66300366300365	
0,032	-3,13988852258851	3,66300366300365	3,66300366300365	6,10500610500608	
0,033	-3,13988852258851	3,66300366300365	-6,10500610500608	1,22100122100122	
0,034	-3,13988852258851	-1,22100122100122	-10,989010989011	-3,66300366300365	
0,035	-2,39622063492063	3,66300366300365	-15,8730158730158	1,22100122100122	
0,036	-3,13988852258851	3,66300366300365	-10,989010989011	1,22100122100122	
0,037	-3,13988852258851	3,66300366300365	-25,6410256410256	6,10500610500608	
0,038	-2,39622063492063	3,66300366300365	-25,6410256410256	1,22100122100122	
0,039	-3,13988852258851	3,66300366300365	-15,8730158730158	1,22100122100122	
0,04	-3,13988852258851	-6,10500610500608	3,66300366300365	1,22100122100122	
0,041	-3,13988852258851	3,66300366300365	8,54700854700852	1,22100122100122	
0,042	-3,13988852258851	-10,989010989011	23,1990231990231	-3,66300366300365	
0,043	-2,39622063492063	-1,22100122100122	18,3150183150183	1,22100122100122	
0,044	-3,13988852258851	3,66300366300365	18,3150183150183	1,22100122100122	
0,045	-3,13988852258851	3,66300366300365	13,4310134310134	1,22100122100122	
0,046	-3,13988852258851	3,66300366300365	3,66300366300365	1,22100122100122	
0,047	-3,13988852258851	-1,22100122100122	-1,22100122100122	-3,66300366300365	
0,048	-3,13988852258851	-1,22100122100122	-1,22100122100122	1,22100122100122	
0,049	-3,13988852258851	-1,22100122100122	-20,7570207570207	1,22100122100122	
0,05	-3,13988852258851	-1,22100122100122	-15,8730158730158	-3,66300366300365	
0,051	-3,13988852258851	-1,22100122100122	-1,22100122100122	1,22100122100122	
0,052	-3,13988852258851	3,66300366300365	-1,22100122100122	1,22100122100122	
0,053	-3,13988852258851	-1,22100122100122	-1,22100122100122	6,10500610500608	
0,054	-3,13988852258851	-1,22100122100122	-6,10500610500608	1,22100122100122	
0,055	-3,13988852258851	-1,22100122100122	-1,22100122100122	1,22100122100122	
0,056	-3,13988852258851	3,66300366300365	8,54700854700852	-3,66300366300365	
0,057	-3,13988852258851	3,66300366300365	28,083028083028	1,22100122100122	
0,058	-3,13988852258851	3,66300366300365	23,1990231990231	1,22100122100122	
0,059	-3,13988852258851	-1,22100122100122	8,54700854700852	1,22100122100122	
0,06	-3,13988852258851	-1,22100122100122	-1,22100122100122	1,22100122100122	
0,061	-3,13988852258851	3,66300366300365	-15,8730158730158	1,22100122100122	
0,062	-3,13988852258851	3,66300366300365	-30,5250305250304	1,22100122100122	
0,063	-3,13988852258851	3,66300366300365	-30,5250305250304	1,22100122100122	
0,064	-3,13988852258851	3,66300366300365	-52,5030525030523	-3,66300366300365	
0,065	-3,13988852258851	-1,22100122100122	-40,2930402930402	1,22100122100122	
0,066	-3,13988852258851	3,66300366300365	-6,10500610500608	6,10500610500608	
0,067	-3,13988852258851	3,66300366300365	8,54700854700852	-3,66300366300365	
0,068	-3,13988852258851	-1,22100122100122	8,54700854700852	-3,66300366300365	
0,069	-3,13988852258851	-1,22100122100122	3,66300366300365	1,22100122100122	
0,07	-3,13988852258851	3,66300366300365	8,54700854700852	6,10500610500608	
0,071	-3,13988852258851	3,66300366300365	13,4310134310134	6,10500610500608	
0,072	-3,13988852258851	-1,22100122100122	8,54700854700852	6,10500610500608	
0,073	-3,13988852258851	-6,10500610500608	13,4310134310134	1,22100122100122	
0,074	-3,13988852258851	-6,10500610500608	8,54700854700852	-3,66300366300365	
0,075	-3,13988852258851	-1,22100122100122	-1,22100122100122	-3,66300366300365	
0,076	-3,13988852258851	-1,22100122100122	3,66300366300365	-3,66300366300365	
0,077	-3,13988852258851	-1,22100122100122	3,66300366300365	1,22100122100122	
0,078	-3,13988852258851	3,66300366300365	-1,22100122100122	1,22100122100122	
0,079	-3,13988852258851	3,66300366300365	-6,10500610500608	6,10500610500608	
0,08	-3,13988852258851	-1,22100122100122	8,54700854700852	1,22100122100122	
0,081	-3,13988852258851	-6,10500610500608	8,54700854700852	-8,54700854700852	
0,082	-3,13988852258851	-6,10500610500608	3,66300366300365	-3,66300366300365	
0,083	-3,13988852258851	-1,22100122100122	-6,10500610500608	-3,66300366300365	
0,084	-3,13988852258851	-1,22100122100122	-1,22100122100122	1,22100122100122	
0,085	-2,39622063492063	3,66300366300365	3,66300366300365	6,10500610500608	
0,086	-3,13988852258851	3,66300366300365	3,66300366300365	6,10500610500608	
0,087	-2,39622063492063	3,66300366300365	3,66300366300365	6,10500610500608	
0,088	-3,13988852258851	3,66300366300365	8,54700854700852	1,22100122100122	
0,089	-2,39622063492063	3,66300366300365	3,66300366300365	1,22100122100122	
0,09	-3,13988852258851	3,66300366300365	-1,22100122100122	1,22100122100122	
0,091	-2,39622063492063	3,66300366300365	-10,989010989011	-3,66300366300365	
0,092	-2,39622063492063	3,66300366300365	-1,22100122100122	-8,54700854700852	
0,093	-2,39622063492063	-1,22100122100122	-6,10500610500608	1,22100122100122	
0,094	-2,39622063492063	-1,22100122100122	-10,989010989011	1,22100122100122	
0,095	-2,39622063492063	3,66300366300365	-25,6410256410256	6,10500610500608	
0,096	-3,13988852258851	3,66300366300365	-20,7570207570207	1,22100122100122	
0,097	-2,39622063492063	-1,22100122100122	-20,7570207570207	1,22100122100122	
0,098	-3,13988852258851	-6,10500610500608	-15,8730158730158	1,22100122100122	
0,099	-3,13988852258851	-1,22100122100122	-15,8730158730158	1,22100122100122	
0,1	-3,13988852258851	-1,22100122100122	-30,5250305250304	1,22100122100122	
0,101	-3,13988852258851	-6,10500610500608	8,54700854700852	1,22100122100122	
0,102	-3,13988852258851	-1,22100122100122	13,4310134310134	1,22100122100122	
0,103	-3,13988852258851	-1,22100122100122	8,54700854700852	1,22100122100122	
0,104	-2,39622063492063	8,54700854700852	13,4310134310134	1,22100122100122	
0,105	-3,13988852258851	3,66300366300365	8,54700854700852	1,22100122100122	
0,106	-2,39622063492063	-1,22100122100122	3,66300366300365	1,22100122100122	
0,107	-2,39622063492063	-6,10500610500608	-6,10500610500608	1,22100122100122	
0,108	-2,39622063492063	3,66300366300365	-1,22100122100122	1,22100122100122	
0,109	-2,39622063492063	3,66300366300365	18,3150183150183	-3,66300366300365	
0,11	-2,39622063492063	-1,22100122100122	23,1990231990231	-3,66300366300365	
0,111	-2,39622063492063	3,66300366300365	3,66300366300365	-3,66300366300365	
0,112	-3,13988852258851	3,66300366300365	-6,10500610500608	1,22100122100122	
0,113	-3,13988852258851	3,66300366300365	-10,989010989011	1,22100122100122	
0,114	-3,13988852258851	-1,22100122100122	-6,10500610500608	1,22100122100122	
0,115	-3,13988852258851	-6,10500610500608	-10,989010989011	1,22100122100122	
0,116	-3,13988852258851	-1,22100122100122	-25,6410256410256	1,22100122100122	
0,117	-3,13988852258851	-1,22100122100122	-10,989010989011	-3,66300366300365	
0,118	-2,39622063492063	-1,22100122100122	8,54700854700852	1,22100122100122	
0,119	-3,13988852258851	3,66300366300365	3,66300366300365	1,22100122100122	
0,12	-3,13988852258851	3,66300366300365	-1,22100122100122	6,10500610500608	
0,121	-3,13988852258851	3,66300366300365	-10,989010989011	6,10500610500608	
0,122	-3,13988852258851	-1,22100122100122	-20,7570207570207	1,22100122100122	
0,123	-3,13988852258851	-1,22100122100122	-10,989010989011	1,22100122100122	
0,124	-2,39622063492063	-1,22100122100122	-1,22100122100122	1,22100122100122	
0,125	-2,39622063492063	-1,22100122100122	3,66300366300365	-3,66300366300365	
0,126	-2,39622063492063	-1,22100122100122	32,9670329670329	-3,66300366300365	
0,127	-2,39622063492063	-1,22100122100122	37,8510378510377	1,22100122100122	
0,128	-2,39622063492063	-1,22100122100122	13,4310134310134	6,10500610500608	
0,129	-2,39622063492063	3,66300366300365	-10,989010989011	1,22100122100122	
0,13	-3,13988852258851	-1,22100122100122	-10,989010989011	-3,66300366300365	
0,131	-2,39622063492063	-1,22100122100122	-20,7570207570207	-8,54700854700852	
0,132	-3,13988852258851	-1,22100122100122	-15,8730158730158	1,22100122100122	
0,133	-1,65255274725274	3,66300366300365	-30,5250305250304	-3,66300366300365	
0,134	-3,13988852258851	-1,22100122100122	-52,5030525030523	-3,66300366300365	
0,135	-2,39622063492063	3,66300366300365	-20,7570207570207	1,22100122100122	
0,136	-3,13988852258851	3,66300366300365	13,4310134310134	1,22100122100122	
0,137	-3,13988852258851	3,66300366300365	28,083028083028	6,10500610500608	
0,138	-3,13988852258851	3,66300366300365	18,3150183150183	1,22100122100122	
0,139	-3,13988852258851	3,66300366300365	23,1990231990231	6,10500610500608	
0,14	-2,39622063492063	-1,22100122100122	28,083028083028	6,10500610500608	
0,141	-3,13988852258851	3,66300366300365	18,3150183150183	6,10500610500608	
0,142	-3,13988852258851	3,66300366300365	13,4310134310134	1,22100122100122	
0,143	-3,13988852258851	-1,22100122100122	8,54700854700852	1,22100122100122	
0,144	-3,13988852258851	-1,22100122100122	-6,10500610500608	1,22100122100122	
0,145	-3,13988852258851	3,66300366300365	-20,7570207570207	1,22100122100122	
0,146	-3,13988852258851	3,66300366300365	8,54700854700852	1,22100122100122	
0,147	-3,13988852258851	-1,22100122100122	-1,22100122100122	1,22100122100122	
0,148	-3,13988852258851	-1,22100122100122	-10,989010989011	1,22100122100122	
0,149	-3,13988852258851	-1,22100122100122	3,66300366300365	-3,66300366300365	
0,15	-3,13988852258851	-6,10500610500608	3,66300366300365	-8,54700854700852	
0,151	-3,13988852258851	-1,22100122100122	-15,8730158730158	-3,66300366300365	
0,152	-3,13988852258851	-1,22100122100122	-20,7570207570207	-3,66300366300365	
0,153	-3,13988852258851	3,66300366300365	-25,6410256410256	6,10500610500608	
0,154	-2,39622063492063	3,66300366300365	-30,5250305250304	6,10500610500608	
0,155	-2,39622063492063	-1,22100122100122	3,66300366300365	6,10500610500608	
0,156	-3,13988852258851	-1,22100122100122	8,54700854700852	1,22100122100122	
0,157	-3,13988852258851	3,66300366300365	8,54700854700852	6,10500610500608	
0,158	-3,13988852258851	3,66300366300365	3,66300366300365	1,22100122100122	
0,159	-3,13988852258851	-1,22100122100122	-1,22100122100122	1,22100122100122	
0,16	-2,39622063492063	3,66300366300365	3,66300366300365	1,22100122100122	
0,161	-3,13988852258851	3,66300366300365	-6,10500610500608	1,22100122100122	
0,162	-2,39622063492063	3,66300366300365	-10,989010989011	1,22100122100122	
0,163	-3,13988852258851	-1,22100122100122	-6,10500610500608	1,22100122100122	
0,164	-3,13988852258851	-6,10500610500608	8,54700854700852	-3,66300366300365	
0,165	-3,13988852258851	-1,22100122100122	3,66300366300365	1,22100122100122	
0,166	-2,39622063492063	3,66300366300365	-1,22100122100122	1,22100122100122	
0,167	-3,13988852258851	-1,22100122100122	-6,10500610500608	1,22100122100122	
0,168	-3,13988852258851	3,66300366300365	3,66300366300365	1,22100122100122	
0,169	-3,13988852258851	3,66300366300365	8,54700854700852	6,10500610500608	
0,17	-2,39622063492063	3,66300366300365	8,54700854700852	6,10500610500608	
0,171	-3,13988852258851	3,66300366300365	3,66300366300365	1,22100122100122	
0,172	-2,39622063492063	3,66300366300365	3,66300366300365	1,22100122100122	
0,173	-3,13988852258851	-1,22100122100122	-6,10500610500608	1,22100122100122	
0,174	-3,13988852258851	3,66300366300365	-6,10500610500608	1,22100122100122	
0,175	-2,39622063492063	-1,22100122100122	3,66300366300365	-3,66300366300365	
0,176	-3,13988852258851	-1,22100122100122	3,66300366300365	-3,66300366300365	
0,177	-3,13988852258851	-1,22100122100122	3,66300366300365	1,22100122100122	
0,178	-3,13988852258851	3,66300366300365	-6,10500610500608	6,10500610500608	
0,179	-3,13988852258851	3,66300366300365	-15,8730158730158	1,22100122100122	
0,18	-3,13988852258851	3,66300366300365	-25,6410256410256	-3,66300366300365	
0,181	-2,39622063492063	3,66300366300365	-15,8730158730158	-8,54700854700852	
0,182	-3,13988852258851	-1,22100122100122	-10,989010989011	1,22100122100122	
0,183	-3,13988852258851	3,66300366300365	-10,989010989011	1,22100122100122	
0,184	-3,13988852258851	-1,22100122100122	3,66300366300365	-3,66300366300365	
0,185	-2,39622063492063	-6,10500610500608	13,4310134310134	1,22100122100122	
0,186	-2,39622063492063	-1,22100122100122	13,4310134310134	1,22100122100122	
0,187	-2,39622063492063	-1,22100122100122	23,1990231990231	-8,54700854700852	
0,188	-2,39622063492063	3,66300366300365	23,1990231990231	-8,54700854700852	
0,189	-2,39622063492063	8,54700854700852	18,3150183150183	-3,66300366300365	
0,19	-2,39622063492063	3,66300366300365	-6,10500610500608	6,10500610500608	
0,191	-2,39622063492063	3,66300366300365	-30,5250305250304	6,10500610500608	
0,192	-3,13988852258851	-1,22100122100122	-35,4090354090353	6,10500610500608	
0,193	-2,39622063492063	-1,22100122100122	-40,2930402930402	6,10500610500608	
0,194	-3,13988852258851	-1,22100122100122	-45,177045177045	6,10500610500608	
0,195	-2,39622063492063	-1,22100122100122	-20,7570207570207	6,10500610500608	
0,196	-2,39622063492063	3,66300366300365	-6,10500610500608	1,22100122100122	
0,197	-3,13988852258851	3,66300366300365	13,4310134310134	-3,66300366300365	
0,198	-2,39622063492063	-6,10500610500608	28,083028083028	-3,66300366300365	
0,199	-2,39622063492063	-6,10500610500608	23,1990231990231	-3,66300366300365	
0,2	-2,39622063492063	-1,22100122100122	13,4310134310134	-3,66300366300365	
0,201	-2,39622063492063	-1,22100122100122	13,4310134310134	-3,66300366300365	
0,202	-2,39622063492063	3,66300366300365	8,54700854700852	1,22100122100122	
0,203	-3,13988852258851	3,66300366300365	8,54700854700852	1,22100122100122	
0,204	-2,39622063492063	3,66300366300365	18,3150183150183	1,22100122100122	
0,205	-2,39622063492063	-1,22100122100122	18,3150183150183	6,10500610500608	
0,206	-2,39622063492063	3,66300366300365	3,66300366300365	6,10500610500608	
0,207	-2,39622063492063	3,66300366300365	-20,7570207570207	6,10500610500608	
0,208	-2,39622063492063	3,66300366300365	-25,6410256410256	1,22100122100122	
0,209	-3,13988852258851	3,66300366300365	-15,8730158730158	1,22100122100122	
0,21	-2,39622063492063	3,66300366300365	-15,8730158730158	1,22100122100122	
0,211	-2,39622063492063	3,66300366300365	-15,8730158730158	1,22100122100122	
0,212	-2,39622063492063	3,66300366300365	-20,7570207570207	6,10500610500608	
0,213	-2,39622063492063	3,66300366300365	-25,6410256410256	1,22100122100122	
0,214	-2,39622063492063	-1,22100122100122	18,3150183150183	-3,66300366300365	
0,215	-2,39622063492063	-6,10500610500608	23,1990231990231	-3,66300366300365	
0,216	-2,39622063492063	-1,22100122100122	8,54700854700852	-3,66300366300365	
0,217	-2,39622063492063	-1,22100122100122	8,54700854700852	-3,66300366300365	
0,218	-2,39622063492063	-6,10500610500608	3,66300366300365	-3,66300366300365	
0,219	-2,39622063492063	-1,22100122100122	3,66300366300365	1,22100122100122	
0,22	-2,39622063492063	3,66300366300365	3,66300366300365	6,10500610500608	
0,221	-2,39622063492063	3,66300366300365	-1,22100122100122	1,22100122100122	
0,222	-2,39622063492063	3,66300366300365	-6,10500610500608	1,22100122100122	
0,223	-2,39622063492063	3,66300366300365	-10,989010989011	1,22100122100122	
0,224	-2,39622063492063	3,66300366300365	-30,5250305250304	6,10500610500608	
0,225	-2,39622063492063	-1,22100122100122	-20,7570207570207	1,22100122100122	
0,226	-2,39622063492063	-1,22100122100122	-10,989010989011	1,22100122100122	
0,227	-3,13988852258851	-1,22100122100122	-10,989010989011	6,10500610500608	
0,228	-3,13988852258851	3,66300366300365	23,1990231990231	1,22100122100122	
0,229	-3,13988852258851	3,66300366300365	18,3150183150183	1,22100122100122	
0,23	-3,13988852258851	3,66300366300365	3,66300366300365	-3,66300366300365	
0,231	-2,39622063492063	3,66300366300365	3,66300366300365	-3,66300366300365	
0,232	-2,39622063492063	-1,22100122100122	3,66300366300365	1,22100122100122	
0,233	-3,13988852258851	3,66300366300365	-1,22100122100122	1,22100122100122	
0,234	-2,39622063492063	-1,22100122100122	-1,22100122100122	-3,66300366300365	
0,235	-2,39622063492063	-1,22100122100122	-6,10500610500608	1,22100122100122	
0,236	-2,39622063492063	3,66300366300365	-6,10500610500608	1,22100122100122	
0,237	-2,39622063492063	3,66300366300365	-10,989010989011	6,10500610500608	
0,238	-2,39622063492063	3,66300366300365	-10,989010989011	1,22100122100122	
0,239	-2,39622063492063	3,66300366300365	-6,10500610500608	1,22100122100122	
0,24	-2,39622063492063	-6,10500610500608	3,66300366300365	1,22100122100122	
0,241	-2,39622063492063	-6,10500610500608	3,66300366300365	6,10500610500608	
0,242	-2,39622063492063	-6,10500610500608	13,4310134310134	-3,66300366300365	
0,243	-2,39622063492063	-6,10500610500608	8,54700854700852	-8,54700854700852	
0,244	-3,13988852258851	-6,10500610500608	3,66300366300365	-3,66300366300365	
0,245	-2,39622063492063	3,66300366300365	-10,989010989011	-3,66300366300365	
0,246	-3,13988852258851	-1,22100122100122	-10,989010989011	-3,66300366300365	
0,247	-3,13988852258851	3,66300366300365	-10,989010989011	6,10500610500608	
0,248	-3,13988852258851	3,66300366300365	-10,989010989011	6,10500610500608	
0,249	-2,39622063492063	8,54700854700852	-10,989010989011	6,10500610500608	
0,25	-3,13988852258851	3,66300366300365	-15,8730158730158	1,22100122100122	
0,251	-3,13988852258851	-6,10500610500608	-6,10500610500608	1,22100122100122	
0,252	-2,39622063492063	3,66300366300365	3,66300366300365	1,22100122100122	
0,253	-3,13988852258851	-1,22100122100122	3,66300366300365	1,22100122100122	
0,254	-2,39622063492063	3,66300366300365	23,1990231990231	1,22100122100122	
0,255	-2,39622063492063	-1,22100122100122	28,083028083028	1,22100122100122	
0,256	-2,39622063492063	3,66300366300365	13,4310134310134	1,22100122100122	
0,257	-2,39622063492063	3,66300366300365	3,66300366300365	6,10500610500608	
0,258	-2,39622063492063	3,66300366300365	3,66300366300365	1,22100122100122	
0,259	-3,13988852258851	-1,22100122100122	-10,989010989011	-3,66300366300365	
0,26	-2,39622063492063	-1,22100122100122	-20,7570207570207	1,22100122100122	
0,261	-2,39622063492063	-1,22100122100122	-10,989010989011	6,10500610500608	
0,262	-2,39622063492063	3,66300366300365	-15,8730158730158	6,10500610500608	
0,263	-2,39622063492063	3,66300366300365	8,54700854700852	1,22100122100122	
0,264	-2,39622063492063	-1,22100122100122	13,4310134310134	-3,66300366300365	
0,265	-2,39622063492063	3,66300366300365	-1,22100122100122	1,22100122100122	
0,266	-2,39622063492063	3,66300366300365	-15,8730158730158	1,22100122100122	
0,267	-2,39622063492063	-1,22100122100122	-20,7570207570207	-3,66300366300365	
0,268	-2,39622063492063	-1,22100122100122	-25,6410256410256	-3,66300366300365	
0,269	-2,39622063492063	-1,22100122100122	-15,8730158730158	1,22100122100122	
0,27	-2,39622063492063	-1,22100122100122	-15,8730158730158	6,10500610500608	
0,271	-2,39622063492063	3,66300366300365	-30,5250305250304	1,22100122100122	
0,272	-2,39622063492063	3,66300366300365	3,66300366300365	1,22100122100122	
0,273	-2,39622063492063	3,66300366300365	23,1990231990231	1,22100122100122	
0,274	-2,39622063492063	-1,22100122100122	18,3150183150183	1,22100122100122	
0,275	-2,39622063492063	-6,10500610500608	8,54700854700852	-8,54700854700852	
0,276	-2,39622063492063	-6,10500610500608	3,66300366300365	-8,54700854700852	
0,277	-2,39622063492063	-1,22100122100122	3,66300366300365	-3,66300366300365	
0,278	-2,39622063492063	-1,22100122100122	8,54700854700852	1,22100122100122	
0,279	-2,39622063492063	3,66300366300365	18,3150183150183	1,22100122100122	
0,28	-2,39622063492063	3,66300366300365	28,083028083028	1,22100122100122	
0,281	-2,39622063492063	-1,22100122100122	23,1990231990231	1,22100122100122	
0,282	-2,39622063492063	3,66300366300365	8,54700854700852	6,10500610500608	
0,283	-2,39622063492063	3,66300366300365	13,4310134310134	1,22100122100122	
0,284	-2,39622063492063	-1,22100122100122	8,54700854700852	-3,66300366300365	
0,285	-2,39622063492063	-1,22100122100122	-6,10500610500608	-3,66300366300365	
0,286	-2,39622063492063	-1,22100122100122	-30,5250305250304	-3,66300366300365	
0,287	-2,39622063492063	-1,22100122100122	-52,5030525030523	1,22100122100122	
0,288	-2,39622063492063	3,66300366300365	-62,2710622710621	6,10500610500608	
0,289	-2,39622063492063	3,66300366300365	-40,2930402930402	1,22100122100122	
0,29	-2,39622063492063	3,66300366300365	-6,10500610500608	6,10500610500608	
0,291	-2,39622063492063	3,66300366300365	-25,6410256410256	6,10500610500608	
0,292	-2,39622063492063	-1,22100122100122	-1,22100122100122	1,22100122100122	
0,293	-2,39622063492063	-1,22100122100122	13,4310134310134	1,22100122100122	
0,294	-2,39622063492063	-1,22100122100122	8,54700854700852	1,22100122100122	
0,295	-2,39622063492063	3,66300366300365	8,54700854700852	1,22100122100122	
0,296	-3,13988852258851	3,66300366300365	8,54700854700852	-3,66300366300365	
0,297	-2,39622063492063	-1,22100122100122	8,54700854700852	-3,66300366300365	
0,298	-2,39622063492063	3,66300366300365	8,54700854700852	-8,54700854700852	
0,299	-2,39622063492063	-1,22100122100122	-1,22100122100122	-3,66300366300365	
0,3	-2,39622063492063	-6,10500610500608	-6,10500610500608	-3,66300366300365	
0,301	-2,39622063492063	-1,22100122100122	3,66300366300365	-3,66300366300365	
0,302	-2,39622063492063	-1,22100122100122	18,3150183150183	1,22100122100122	
0,303	-2,39622063492063	-1,22100122100122	32,9670329670329	6,10500610500608	
0,304	-3,13988852258851	3,66300366300365	28,083028083028	6,10500610500608	
0,305	-2,39622063492063	3,66300366300365	8,54700854700852	1,22100122100122	
0,306	-3,13988852258851	3,66300366300365	-6,10500610500608	-3,66300366300365	
0,307	-3,13988852258851	3,66300366300365	-6,10500610500608	6,10500610500608	
0,308	-2,39622063492063	3,66300366300365	-6,10500610500608	1,22100122100122	
0,309	-2,39622063492063	-1,22100122100122	3,66300366300365	-3,66300366300365	
0,31	-2,39622063492063	-1,22100122100122	-1,22100122100122	1,22100122100122	
0,311	-3,13988852258851	3,66300366300365	-15,8730158730158	1,22100122100122	
0,312	-2,39622063492063	8,54700854700852	-15,8730158730158	1,22100122100122	
0,313	-2,39622063492063	3,66300366300365	-30,5250305250304	1,22100122100122	
0,314	-2,39622063492063	-1,22100122100122	-35,4090354090353	1,22100122100122	
0,315	-2,39622063492063	-6,10500610500608	-25,6410256410256	1,22100122100122	
0,316	-2,39622063492063	3,66300366300365	-20,7570207570207	-3,66300366300365	
0,317	-2,39622063492063	-1,22100122100122	-1,22100122100122	-3,66300366300365	
0,318	-2,39622063492063	-1,22100122100122	18,3150183150183	-3,66300366300365	
0,319	-2,39622063492063	-10,989010989011	18,3150183150183	-3,66300366300365	
0,32	-2,39622063492063	-6,10500610500608	23,1990231990231	1,22100122100122	
0,321	-2,39622063492063	-1,22100122100122	8,54700854700852	1,22100122100122	
0,322	-2,39622063492063	3,66300366300365	-1,22100122100122	1,22100122100122	
0,323	-2,39622063492063	3,66300366300365	-1,22100122100122	-3,66300366300365	
0,324	-2,39622063492063	3,66300366300365	3,66300366300365	1,22100122100122	
0,325	-3,13988852258851	-1,22100122100122	3,66300366300365	-3,66300366300365	
0,326	-2,39622063492063	-6,10500610500608	-1,22100122100122	-3,66300366300365	
0,327	-2,39622063492063	-1,22100122100122	-1,22100122100122	1,22100122100122	
0,328	-2,39622063492063	3,66300366300365	8,54700854700852	6,10500610500608	
0,329	-2,39622063492063	3,66300366300365	8,54700854700852	6,10500610500608	
0,33	-2,39622063492063	3,66300366300365	-1,22100122100122	1,22100122100122	
0,331	-2,39622063492063	-6,10500610500608	-15,8730158730158	-3,66300366300365	
0,332	-2,39622063492063	-1,22100122100122	-15,8730158730158	1,22100122100122	
0,333	-2,39622063492063	3,66300366300365	-15,8730158730158	1,22100122100122	
0,334	-2,39622063492063	-1,22100122100122	-10,989010989011	1,22100122100122	
0,335	-2,39622063492063	3,66300366300365	-10,989010989011	6,10500610500608	
0,336	-4,62722429792428	3,66300366300365	-10,989010989011	6,10500610500608	
0,337	-2,39622063492063	8,54700854700852	18,3150183150183	6,10500610500608	
0,338	-2,39622063492063	3,66300366300365	18,3150183150183	1,22100122100122	
0,339	-2,39622063492063	3,66300366300365	3,66300366300365	1,22100122100122	
0,34	-2,39622063492063	3,66300366300365	-6,10500610500608	6,10500610500608	
0,341	-2,39622063492063	3,66300366300365	-10,989010989011	1,22100122100122	
0,342	-2,39622063492063	-1,22100122100122	-10,989010989011	-3,66300366300365	
0,343	-2,39622063492063	-6,10500610500608	-20,7570207570207	1,22100122100122	
0,344	-2,39622063492063	3,66300366300365	-25,6410256410256	1,22100122100122	
0,345	-2,39622063492063	3,66300366300365	-20,7570207570207	1,22100122100122	
0,346	-2,39622063492063	3,66300366300365	3,66300366300365	1,22100122100122	
0,347	-2,39622063492063	3,66300366300365	18,3150183150183	1,22100122100122	
0,348	-2,39622063492063	-1,22100122100122	18,3150183150183	-3,66300366300365	
0,349	-2,39622063492063	-1,22100122100122	8,54700854700852	1,22100122100122	
0,35	-2,39622063492063	-1,22100122100122	3,66300366300365	1,22100122100122	
0,351	-2,39622063492063	-1,22100122100122	3,66300366300365	1,22100122100122	
0,352	-2,39622063492063	3,66300366300365	-1,22100122100122	1,22100122100122	
0,353	-2,39622063492063	3,66300366300365	-1,22100122100122	6,10500610500608	
0,354	-2,39622063492063	3,66300366300365	3,66300366300365	6,10500610500608	
0,355	-2,39622063492063	3,66300366300365	3,66300366300365	6,10500610500608	
0,356	-2,39622063492063	-6,10500610500608	-1,22100122100122	1,22100122100122	
0,357	-2,39622063492063	-6,10500610500608	-1,22100122100122	-3,66300366300365	
0,358	-2,39622063492063	3,66300366300365	-1,22100122100122	-8,54700854700852	
0,359	-2,39622063492063	-1,22100122100122	8,54700854700852	-3,66300366300365	
0,36	-2,39622063492063	3,66300366300365	28,083028083028	-3,66300366300365	
0,361	-2,39622063492063	-6,10500610500608	18,3150183150183	1,22100122100122	
0,362	-2,39622063492063	3,66300366300365	8,54700854700852	6,10500610500608	
0,363	-2,39622063492063	3,66300366300365	13,4310134310134	-3,66300366300365	
0,364	-2,39622063492063	-1,22100122100122	3,66300366300365	-3,66300366300365	
0,365	-2,39622063492063	-1,22100122100122	-10,989010989011	-3,66300366300365	
0,366	-2,39622063492063	3,66300366300365	-30,5250305250304	1,22100122100122	
0,367	-2,39622063492063	-1,22100122100122	-52,5030525030523	1,22100122100122	
0,368	-2,39622063492063	-1,22100122100122	-45,177045177045	1,22100122100122	
0,369	-2,39622063492063	3,66300366300365	-10,989010989011	1,22100122100122	
0,37	-2,39622063492063	3,66300366300365	13,4310134310134	6,10500610500608	
0,371	-3,13988852258851	3,66300366300365	3,66300366300365	1,22100122100122	
0,372	-2,39622063492063	8,54700854700852	-6,10500610500608	1,22100122100122	
0,373	-2,39622063492063	3,66300366300365	-1,22100122100122	6,10500610500608	
0,374	-2,39622063492063	3,66300366300365	-1,22100122100122	1,22100122100122	
0,375	-2,39622063492063	3,66300366300365	-10,989010989011	-8,54700854700852	
0,376	-2,39622063492063	-1,22100122100122	-10,989010989011	-8,54700854700852	
0,377	-2,39622063492063	-1,22100122100122	-15,8730158730158	-3,66300366300365	
0,378	-2,39622063492063	3,66300366300365	-10,989010989011	1,22100122100122	
0,379	-2,39622063492063	8,54700854700852	8,54700854700852	6,10500610500608	
0,38	-2,39622063492063	3,66300366300365	18,3150183150183	1,22100122100122	
0,381	-2,39622063492063	-6,10500610500608	23,1990231990231	1,22100122100122	
0,382	-2,39622063492063	-1,22100122100122	13,4310134310134	1,22100122100122	
0,383	-2,39622063492063	-6,10500610500608	23,1990231990231	-3,66300366300365	
0,384	-2,39622063492063	-10,989010989011	13,4310134310134	-3,66300366300365	
0,385	-2,39622063492063	-6,10500610500608	3,66300366300365	-3,66300366300365	
0,386	-1,65255274725274	3,66300366300365	3,66300366300365	1,22100122100122	
0,387	-2,39622063492063	8,54700854700852	8,54700854700852	1,22100122100122	
0,388	-2,39622063492063	3,66300366300365	8,54700854700852	1,22100122100122	
0,389	-2,39622063492063	-1,22100122100122	8,54700854700852	1,22100122100122	
0,39	-2,39622063492063	-1,22100122100122	3,66300366300365	6,10500610500608	
0,391	-2,39622063492063	3,66300366300365	-6,10500610500608	6,10500610500608	
0,392	-2,39622063492063	3,66300366300365	-10,989010989011	1,22100122100122	
0,393	-2,39622063492063	3,66300366300365	-10,989010989011	-3,66300366300365	
0,394	-2,39622063492063	3,66300366300365	-15,8730158730158	1,22100122100122	
0,395	-2,39622063492063	8,54700854700852	-15,8730158730158	1,22100122100122	
0,396	-2,39622063492063	3,66300366300365	-20,7570207570207	1,22100122100122	
0,397	-2,39622063492063	-1,22100122100122	-10,989010989011	1,22100122100122	
0,398	-2,39622063492063	-1,22100122100122	3,66300366300365	1,22100122100122	
0,399	-2,39622063492063	-1,22100122100122	8,54700854700852	-3,66300366300365	
0,4	-2,39622063492063	-1,22100122100122	3,66300366300365	-3,66300366300365	
0,401	-2,39622063492063	-6,10500610500608	-10,989010989011	-3,66300366300365	
0,402	-2,39622063492063	-1,22100122100122	-6,10500610500608	-3,66300366300365	
0,403	-2,39622063492063	-1,22100122100122	3,66300366300365	1,22100122100122	
0,404	-2,39622063492063	3,66300366300365	18,3150183150183	6,10500610500608	
0,405	-2,39622063492063	3,66300366300365	23,1990231990231	6,10500610500608	
0,406	-2,39622063492063	3,66300366300365	18,3150183150183	6,10500610500608	
0,407	-2,39622063492063	3,66300366300365	3,66300366300365	6,10500610500608	
0,408	-2,39622063492063	3,66300366300365	-10,989010989011	1,22100122100122	
0,409	-2,39622063492063	-1,22100122100122	-10,989010989011	1,22100122100122	
0,41	-2,39622063492063	-1,22100122100122	-30,5250305250304	6,10500610500608	
0,411	-2,39622063492063	3,66300366300365	-40,2930402930402	6,10500610500608	
0,412	-2,39622063492063	3,66300366300365	-35,4090354090353	1,22100122100122	
0,413	-2,39622063492063	3,66300366300365	-1,22100122100122	-3,66300366300365	
0,414	-2,39622063492063	-6,10500610500608	3,66300366300365	-3,66300366300365	
0,415	-2,39622063492063	-1,22100122100122	3,66300366300365	-3,66300366300365	
0,416	-2,39622063492063	3,66300366300365	8,54700854700852	1,22100122100122	
0,417	-2,39622063492063	-1,22100122100122	13,4310134310134	-3,66300366300365	
0,418	-2,39622063492063	-1,22100122100122	3,66300366300365	-3,66300366300365	
0,419	-2,39622063492063	3,66300366300365	-20,7570207570207	-3,66300366300365	
0,42	-2,39622063492063	-6,10500610500608	13,4310134310134	-3,66300366300365	
0,421	-2,39622063492063	-1,22100122100122	18,3150183150183	1,22100122100122	
0,422	-2,39622063492063	3,66300366300365	-6,10500610500608	1,22100122100122	
0,423	-2,39622063492063	-1,22100122100122	-15,8730158730158	1,22100122100122	
0,424	-2,39622063492063	3,66300366300365	-10,989010989011	1,22100122100122	
0,425	-2,39622063492063	3,66300366300365	-1,22100122100122	-3,66300366300365	
0,426	-2,39622063492063	-1,22100122100122	8,54700854700852	-3,66300366300365	
0,427	-2,39622063492063	3,66300366300365	3,66300366300365	1,22100122100122	
0,428	-2,39622063492063	3,66300366300365	-1,22100122100122	6,10500610500608	
0,429	-2,39622063492063	3,66300366300365	3,66300366300365	6,10500610500608	
0,43	-2,39622063492063	3,66300366300365	3,66300366300365	6,10500610500608	
0,431	-2,39622063492063	3,66300366300365	13,4310134310134	1,22100122100122	
0,432	-2,39622063492063	-1,22100122100122	28,083028083028	1,22100122100122	
0,433	-2,39622063492063	3,66300366300365	42,7350427350426	1,22100122100122	
0,434	-2,39622063492063	3,66300366300365	32,9670329670329	1,22100122100122	
0,435	-2,39622063492063	-1,22100122100122	8,54700854700852	1,22100122100122	
0,436	-3,8835564102564	-1,22100122100122	-10,989010989011	6,10500610500608	
0,437	-2,39622063492063	3,66300366300365	-35,4090354090353	6,10500610500608	
0,438	-2,39622063492063	-6,10500610500608	-57,3870573870572	-3,66300366300365	
0,439	-2,39622063492063	-6,10500610500608	-76,9230769230767	-3,66300366300365	
0,44	-1,65255274725274	-6,10500610500608	-57,3870573870572	1,22100122100122	
0,441	-2,39622063492063	-1,22100122100122	-25,6410256410256	-3,66300366300365	
0,442	-2,39622063492063	-1,22100122100122	3,66300366300365	-3,66300366300365	
0,443	-2,39622063492063	-1,22100122100122	8,54700854700852	-3,66300366300365	
0,444	-2,39622063492063	-1,22100122100122	8,54700854700852	-3,66300366300365	
0,445	-2,39622063492063	-1,22100122100122	18,3150183150183	-3,66300366300365	
0,446	-2,39622063492063	3,66300366300365	23,1990231990231	1,22100122100122	
0,447	-2,39622063492063	8,54700854700852	18,3150183150183	-3,66300366300365	
0,448	-2,39622063492063	-1,22100122100122	-1,22100122100122	1,22100122100122	
0,449	-2,39622063492063	-1,22100122100122	-1,22100122100122	6,10500610500608	
0,45	-2,39622063492063	-1,22100122100122	-1,22100122100122	1,22100122100122	
0,451	-2,39622063492063	-1,22100122100122	3,66300366300365	-3,66300366300365	
0,452	-2,39622063492063	3,66300366300365	3,66300366300365	1,22100122100122	
0,453	-2,39622063492063	3,66300366300365	-10,989010989011	1,22100122100122	
0,454	-2,39622063492063	8,54700854700852	-6,10500610500608	1,22100122100122	
0,455	-2,39622063492063	-1,22100122100122	13,4310134310134	1,22100122100122	
0,456	-2,39622063492063	-6,10500610500608	13,4310134310134	1,22100122100122	
0,457	-2,39622063492063	-1,22100122100122	13,4310134310134	6,10500610500608	
0,458	-2,39622063492063	3,66300366300365	8,54700854700852	1,22100122100122	
0,459	-2,39622063492063	-1,22100122100122	18,3150183150183	1,22100122100122	
0,46	-2,39622063492063	-1,22100122100122	3,66300366300365	1,22100122100122	
0,461	-2,39622063492063	3,66300366300365	-6,10500610500608	6,10500610500608	
0,462	-2,39622063492063	3,66300366300365	-15,8730158730158	6,10500610500608	
0,463	-2,39622063492063	3,66300366300365	-15,8730158730158	6,10500610500608	
0,464	-2,39622063492063	3,66300366300365	-15,8730158730158	1,22100122100122	
0,465	-2,39622063492063	3,66300366300365	-10,989010989011	1,22100122100122	
0,466	-2,39622063492063	3,66300366300365	-10,989010989011	1,22100122100122	
0,467	-2,39622063492063	-1,22100122100122	-10,989010989011	-8,54700854700852	
0,468	-2,39622063492063	-1,22100122100122	37,8510378510377	-3,66300366300365	
0,469	-3,13988852258851	-1,22100122100122	47,6190476190475	-3,66300366300365	
0,47	-2,39622063492063	-1,22100122100122	18,3150183150183	1,22100122100122	
0,471	-2,39622063492063	8,54700854700852	-20,7570207570207	-3,66300366300365	
0,472	-2,39622063492063	3,66300366300365	-30,5250305250304	-3,66300366300365	
0,473	-2,39622063492063	-6,10500610500608	-40,2930402930402	-3,66300366300365	
0,474	-2,39622063492063	-6,10500610500608	-35,4090354090353	-3,66300366300365	
0,475	-2,39622063492063	-1,22100122100122	-20,7570207570207	-8,54700854700852	
0,476	-2,39622063492063	-1,22100122100122	-10,989010989011	-3,66300366300365	
0,477	-2,39622063492063	-1,22100122100122	13,4310134310134	6,10500610500608	
0,478	-2,39622063492063	3,66300366300365	18,3150183150183	6,10500610500608	
0,479	-2,39622063492063	8,54700854700852	13,4310134310134	6,10500610500608	
0,48	-2,39622063492063	8,54700854700852	18,3150183150183	10,989010989011	
0,481	-2,39622063492063	-1,22100122100122	3,66300366300365	6,10500610500608	
0,482	-2,39622063492063	-1,22100122100122	-6,10500610500608	1,22100122100122	
0,483	-2,39622063492063	3,66300366300365	-1,22100122100122	-8,54700854700852	
0,484	-2,39622063492063	8,54700854700852	-1,22100122100122	-8,54700854700852	
0,485	-2,39622063492063	8,54700854700852	8,54700854700852	1,22100122100122	
0,486	-3,8835564102564	3,66300366300365	13,4310134310134	6,10500610500608	
0,487	-3,13988852258851	3,66300366300365	3,66300366300365	15,8730158730158	
0,488	-2,39622063492063	-1,22100122100122	-10,989010989011	15,8730158730158	
0,489	-2,39622063492063	-1,22100122100122	-10,989010989011	10,989010989011	
0,49	-2,39622063492063	-1,22100122100122	3,66300366300365	6,10500610500608	
0,491	-2,39622063492063	3,66300366300365	-6,10500610500608	1,22100122100122	
0,492	-2,39622063492063	-1,22100122100122	-6,10500610500608	-3,66300366300365	
0,493	-2,39622063492063	-6,10500610500608	3,66300366300365	-8,54700854700852	
0,494	-2,39622063492063	-10,989010989011	-6,10500610500608	-3,66300366300365	
0,495	-2,39622063492063	-6,10500610500608	-20,7570207570207	-8,54700854700852	
0,496	-2,39622063492063	-6,10500610500608	-25,6410256410256	-8,54700854700852	
0,497	-2,39622063492063	-10,989010989011	-30,5250305250304	-13,4310134310134	
0,498	-2,39622063492063	-1,22100122100122	-52,5030525030523	-8,54700854700852	
0,499	-2,39622063492063	3,66300366300365	-20,7570207570207	-3,66300366300365	
0,5	-2,39622063492063	-1,22100122100122	18,3150183150183	1,22100122100122	
0,501	-2,39622063492063	-1,22100122100122	23,1990231990231	6,10500610500608	
0,502	-2,39622063492063	3,66300366300365	23,1990231990231	6,10500610500608	
0,503	-2,39622063492063	-1,22100122100122	18,3150183150183	6,10500610500608	
0,504	-2,39622063492063	3,66300366300365	18,3150183150183	1,22100122100122	
0,505	-2,39622063492063	3,66300366300365	13,4310134310134	1,22100122100122	
0,506	-2,39622063492063	3,66300366300365	3,66300366300365	1,22100122100122	
0,507	-2,39622063492063	8,54700854700852	3,66300366300365	6,10500610500608	
0,508	-2,39622063492063	3,66300366300365	-1,22100122100122	1,22100122100122	
0,509	-2,39622063492063	-1,22100122100122	3,66300366300365	-3,66300366300365	
0,51	-2,39622063492063	3,66300366300365	-6,10500610500608	-3,66300366300365	
0,511	-2,39622063492063	3,66300366300365	-10,989010989011	1,22100122100122	
0,512	-2,39622063492063	3,66300366300365	-15,8730158730158	1,22100122100122	
0,513	-2,39622063492063	3,66300366300365	-10,989010989011	6,10500610500608	
0,514	-2,39622063492063	3,66300366300365	8,54700854700852	1,22100122100122	
0,515	-2,39622063492063	-1,22100122100122	8,54700854700852	1,22100122100122	
0,516	-2,39622063492063	3,66300366300365	8,54700854700852	1,22100122100122	
0,517	-2,39622063492063	3,66300366300365	-6,10500610500608	1,22100122100122	
0,518	-2,39622063492063	-1,22100122100122	3,66300366300365	1,22100122100122	
0,519	-2,39622063492063	3,66300366300365	8,54700854700852	1,22100122100122	
0,52	-2,39622063492063	3,66300366300365	3,66300366300365	6,10500610500608	
0,521	-2,39622063492063	3,66300366300365	-25,6410256410256	6,10500610500608	
0,522	-2,39622063492063	-1,22100122100122	-10,989010989011	1,22100122100122	
0,523	-2,39622063492063	3,66300366300365	23,1990231990231	1,22100122100122	
0,524	-2,39622063492063	3,66300366300365	18,3150183150183	1,22100122100122	
0,525	-2,39622063492063	-1,22100122100122	13,4310134310134	1,22100122100122	
0,526	-2,39622063492063	-1,22100122100122	-10,989010989011	-3,66300366300365	
0,527	-2,39622063492063	-6,10500610500608	-35,4090354090353	-3,66300366300365	
0,528	-2,39622063492063	-6,10500610500608	-40,2930402930402	-3,66300366300365	
0,529	-2,39622063492063	-1,22100122100122	-10,989010989011	-3,66300366300365	
0,53	-2,39622063492063	-6,10500610500608	-20,7570207570207	-3,66300366300365	
0,531	-2,39622063492063	-1,22100122100122	-20,7570207570207	-8,54700854700852	
0,532	-2,39622063492063	3,66300366300365	3,66300366300365	1,22100122100122	
0,533	-2,39622063492063	3,66300366300365	18,3150183150183	1,22100122100122	
0,534	-2,39622063492063	-1,22100122100122	23,1990231990231	-3,66300366300365	
0,535	-2,39622063492063	-6,10500610500608	28,083028083028	1,22100122100122	
0,536	-2,39622063492063	-6,10500610500608	18,3150183150183	1,22100122100122	
0,537	-2,39622063492063	3,66300366300365	8,54700854700852	6,10500610500608	
0,538	-2,39622063492063	8,54700854700852	-1,22100122100122	6,10500610500608	
0,539	-2,39622063492063	8,54700854700852	-6,10500610500608	6,10500610500608	
0,54	-2,39622063492063	8,54700854700852	-10,989010989011	6,10500610500608	
0,541	-2,39622063492063	8,54700854700852	-10,989010989011	6,10500610500608	
0,542	-1,65255274725274	3,66300366300365	-25,6410256410256	1,22100122100122	
0,543	-1,65255274725274	3,66300366300365	-10,989010989011	-3,66300366300365	
0,544	-2,39622063492063	3,66300366300365	8,54700854700852	1,22100122100122	
0,545	-2,39622063492063	8,54700854700852	8,54700854700852	1,22100122100122	
0,546	-2,39622063492063	3,66300366300365	3,66300366300365	-3,66300366300365	
0,547	-2,39622063492063	-1,22100122100122	3,66300366300365	-3,66300366300365	
0,548	-2,39622063492063	-6,10500610500608	13,4310134310134	1,22100122100122	
0,549	-2,39622063492063	-1,22100122100122	8,54700854700852	1,22100122100122	
0,55	-1,65255274725274	-1,22100122100122	3,66300366300365	-3,66300366300365	
0,551	-1,65255274725274	-1,22100122100122	-6,10500610500608	-8,54700854700852	
0,552	-2,39622063492063	-1,22100122100122	3,66300366300365	1,22100122100122	
0,553	-2,39622063492063	3,66300366300365	3,66300366300365	6,10500610500608	
0,554	-1,65255274725274	3,66300366300365	-1,22100122100122	10,989010989011	
0,555	-2,39622063492063	-1,22100122100122	-25,6410256410256	6,10500610500608	
0,556	-1,65255274725274	-6,10500610500608	-57,3870573870572	6,10500610500608	
0,557	-2,39622063492063	-1,22100122100122	-25,6410256410256	1,22100122100122	
0,558	-2,39622063492063	3,66300366300365	-10,989010989011	-3,66300366300365	
0,559	-2,39622063492063	-6,10500610500608	-20,7570207570207	-3,66300366300365	
0,56	-2,39622063492063	-6,10500610500608	-10,989010989011	-3,66300366300365	
0,561	-2,39622063492063	3,66300366300365	3,66300366300365	-3,66300366300365	
0,562	-2,39622063492063	-1,22100122100122	8,54700854700852	-13,4310134310134	
0,563	-2,39622063492063	-1,22100122100122	32,9670329670329	-8,54700854700852	
0,564	-2,39622063492063	-1,22100122100122	28,083028083028	-3,66300366300365	
0,565	-1,65255274725274	-1,22100122100122	13,4310134310134	6,10500610500608	
0,566	-2,39622063492063	3,66300366300365	13,4310134310134	10,989010989011	
0,567	-1,65255274725274	-1,22100122100122	18,3150183150183	10,989010989011	
0,568	-1,65255274725274	-1,22100122100122	3,66300366300365	10,989010989011	
0,569	-2,39622063492063	3,66300366300365	-6,10500610500608	10,989010989011	
0,57	-1,65255274725274	8,54700854700852	-6,10500610500608	10,989010989011	
0,571	-1,65255274725274	8,54700854700852	-15,8730158730158	1,22100122100122	
0,572	-1,65255274725274	3,66300366300365	-10,989010989011	-3,66300366300365	
0,573	-2,39622063492063	3,66300366300365	-10,989010989011	-3,66300366300365	
0,574	-2,39622063492063	3,66300366300365	-10,989010989011	-3,66300366300365	
0,575	-1,65255274725274	3,66300366300365	8,54700854700852	-3,66300366300365	
0,576	-2,39622063492063	-1,22100122100122	23,1990231990231	1,22100122100122	
0,577	-1,65255274725274	-1,22100122100122	23,1990231990231	6,10500610500608	
0,578	-2,39622063492063	3,66300366300365	13,4310134310134	1,22100122100122	
0,579	-2,39622063492063	-1,22100122100122	-10,989010989011	-3,66300366300365	
0,58	-2,39622063492063	-1,22100122100122	-10,989010989011	-8,54700854700852	
0,581	-2,39622063492063	3,66300366300365	-20,7570207570207	-8,54700854700852	
0,582	-2,39622063492063	3,66300366300365	-20,7570207570207	1,22100122100122	
0,583	-2,39622063492063	3,66300366300365	-30,5250305250304	-3,66300366300365	
0,584	-1,65255274725274	3,66300366300365	-20,7570207570207	1,22100122100122	
0,585	-1,65255274725274	3,66300366300365	-1,22100122100122	1,22100122100122	
0,586	-1,65255274725274	3,66300366300365	13,4310134310134	1,22100122100122	
0,587	-1,65255274725274	3,66300366300365	32,9670329670329	6,10500610500608	
0,588	-1,65255274725274	3,66300366300365	8,54700854700852	1,22100122100122	
0,589	-1,65255274725274	-1,22100122100122	-15,8730158730158	1,22100122100122	
0,59	-1,65255274725274	-1,22100122100122	-10,989010989011	1,22100122100122	
0,591	-1,65255274725274	3,66300366300365	-6,10500610500608	-3,66300366300365	
0,592	-1,65255274725274	3,66300366300365	-1,22100122100122	-3,66300366300365	
0,593	-1,65255274725274	-1,22100122100122	3,66300366300365	-3,66300366300365	
0,594	-1,65255274725274	-6,10500610500608	3,66300366300365	-3,66300366300365	
0,595	-1,65255274725274	3,66300366300365	-6,10500610500608	6,10500610500608	
0,596	-2,39622063492063	3,66300366300365	-6,10500610500608	6,10500610500608	
0,597	-1,65255274725274	-1,22100122100122	-6,10500610500608	6,10500610500608	
0,598	-1,65255274725274	-6,10500610500608	-6,10500610500608	1,22100122100122	
0,599	-1,65255274725274	-1,22100122100122	-10,989010989011	6,10500610500608	
0,6	-1,65255274725274	-6,10500610500608	3,66300366300365	1,22100122100122	
0,601	-1,65255274725274	-1,22100122100122	8,54700854700852	1,22100122100122	
0,602	-1,65255274725274	-1,22100122100122	18,3150183150183	6,10500610500608	
0,603	-1,65255274725274	-1,22100122100122	18,3150183150183	6,10500610500608	
0,604	-1,65255274725274	3,66300366300365	8,54700854700852	6,10500610500608	
0,605	-1,65255274725274	-6,10500610500608	-1,22100122100122	1,22100122100122	
0,606	-1,65255274725274	-10,989010989011	13,4310134310134	-8,54700854700852	
0,607	-1,65255274725274	-6,10500610500608	18,3150183150183	1,22100122100122	
0,608	-1,65255274725274	-1,22100122100122	-10,989010989011	-3,66300366300365	
0,609	-1,65255274725274	-1,22100122100122	-30,5250305250304	-8,54700854700852	
0,61	-1,65255274725274	-1,22100122100122	-35,4090354090353	-3,66300366300365	
0,611	-1,65255274725274	3,66300366300365	-20,7570207570207	1,22100122100122	
0,612	-1,65255274725274	8,54700854700852	-6,10500610500608	6,10500610500608	
0,613	-1,65255274725274	8,54700854700852	-10,989010989011	1,22100122100122	
0,614	-1,65255274725274	8,54700854700852	-20,7570207570207	1,22100122100122	
0,615	-1,65255274725274	3,66300366300365	18,3150183150183	1,22100122100122	
0,616	-1,65255274725274	3,66300366300365	32,9670329670329	1,22100122100122	
0,617	-1,65255274725274	-1,22100122100122	28,083028083028	1,22100122100122	
0,618	-1,65255274725274	-10,989010989011	-15,8730158730158	1,22100122100122	
0,619	-1,65255274725274	-6,10500610500608	-25,6410256410256	1,22100122100122	
0,62	-1,65255274725274	3,66300366300365	-25,6410256410256	1,22100122100122	
0,621	-1,65255274725274	3,66300366300365	-15,8730158730158	1,22100122100122	
0,622	-1,65255274725274	-1,22100122100122	-15,8730158730158	-3,66300366300365	
0,623	-1,65255274725274	-6,10500610500608	-6,10500610500608	-3,66300366300365	
0,624	-1,65255274725274	3,66300366300365	-10,989010989011	6,10500610500608	
0,625	-1,65255274725274	3,66300366300365	23,1990231990231	-3,66300366300365	
0,626	-1,65255274725274	3,66300366300365	28,083028083028	-8,54700854700852	
0,627	-1,65255274725274	3,66300366300365	13,4310134310134	-3,66300366300365	
0,628	-1,65255274725274	8,54700854700852	3,66300366300365	6,10500610500608	
0,629	-1,65255274725274	8,54700854700852	-1,22100122100122	6,10500610500608	
0,63	-1,65255274725274	3,66300366300365	-6,10500610500608	6,10500610500608	
0,631	-1,65255274725274	-1,22100122100122	-10,989010989011	6,10500610500608	
0,632	-1,65255274725274	3,66300366300365	-6,10500610500608	6,10500610500608	
0,633	-1,65255274725274	-1,22100122100122	8,54700854700852	-3,66300366300365	
0,634	-1,65255274725274	-10,989010989011	13,4310134310134	-3,66300366300365	
0,635	-1,65255274725274	-6,10500610500608	13,4310134310134	-3,66300366300365	
0,636	-2,39622063492063	-6,10500610500608	18,3150183150183	1,22100122100122	
0,637	-1,65255274725274	3,66300366300365	3,66300366300365	6,10500610500608	
0,638	-1,65255274725274	3,66300366300365	-6,10500610500608	6,10500610500608	
0,639	-1,65255274725274	3,66300366300365	-10,989010989011	1,22100122100122	
0,64	-1,65255274725274	3,66300366300365	-20,7570207570207	-3,66300366300365	
0,641	-1,65255274725274	3,66300366300365	-30,5250305250304	-3,66300366300365	
0,642	-1,65255274725274	3,66300366300365	-30,5250305250304	-3,66300366300365	
0,643	-1,65255274725274	-6,10500610500608	-30,5250305250304	-3,66300366300365	
0,644	-1,65255274725274	-6,10500610500608	3,66300366300365	1,22100122100122	
0,645	-1,65255274725274	-1,22100122100122	32,9670329670329	1,22100122100122	
0,646	-1,65255274725274	3,66300366300365	18,3150183150183	1,22100122100122	
0,647	-1,65255274725274	3,66300366300365	8,54700854700852	1,22100122100122	
0,648	-1,65255274725274	3,66300366300365	3,66300366300365	1,22100122100122	
0,649	-1,65255274725274	3,66300366300365	3,66300366300365	6,10500610500608	
0,65	-1,65255274725274	-1,22100122100122	3,66300366300365	1,22100122100122	
0,651	-1,65255274725274	-6,10500610500608	3,66300366300365	1,22100122100122	
0,652	-1,65255274725274	-1,22100122100122	8,54700854700852	1,22100122100122	
0,653	-1,65255274725274	-1,22100122100122	3,66300366300365	6,10500610500608	
0,654	-1,65255274725274	3,66300366300365	-1,22100122100122	6,10500610500608	
0,655	-1,65255274725274	3,66300366300365	3,66300366300365	1,22100122100122	
0,656	-1,65255274725274	-1,22100122100122	-1,22100122100122	1,22100122100122	
0,657	-1,65255274725274	3,66300366300365	-10,989010989011	1,22100122100122	
0,658	-1,65255274725274	-1,22100122100122	-30,5250305250304	-3,66300366300365	
0,659	-1,65255274725274	-1,22100122100122	-15,8730158730158	1,22100122100122	
0,66	-1,65255274725274	-1,22100122100122	-15,8730158730158	-3,66300366300365	
0,661	-1,65255274725274	-1,22100122100122	-10,989010989011	-3,66300366300365	
0,662	-1,65255274725274	3,66300366300365	-6,10500610500608	1,22100122100122	
0,663	-1,65255274725274	3,66300366300365	-1,22100122100122	1,22100122100122	
0,664	-1,65255274725274	-1,22100122100122	-1,22100122100122	6,10500610500608	
0,665	-1,65255274725274	-6,10500610500608	8,54700854700852	6,10500610500608	
0,666	-1,65255274725274	3,66300366300365	32,9670329670329	6,10500610500608	
0,667	-1,65255274725274	3,66300366300365	23,1990231990231	1,22100122100122	
0,668	-1,65255274725274	-1,22100122100122	18,3150183150183	6,10500610500608	
0,669	-1,65255274725274	3,66300366300365	-1,22100122100122	1,22100122100122	
0,67	-1,65255274725274	3,66300366300365	-10,989010989011	-8,54700854700852	
0,671	-1,65255274725274	8,54700854700852	-20,7570207570207	-3,66300366300365	
0,672	-1,65255274725274	3,66300366300365	-30,5250305250304	-3,66300366300365	
0,673	-1,65255274725274	-1,22100122100122	-35,4090354090353	6,10500610500608	
0,674	-1,65255274725274	3,66300366300365	-20,7570207570207	10,989010989011	
0,675	-1,65255274725274	-1,22100122100122	13,4310134310134	10,989010989011	
0,676	-1,65255274725274	-1,22100122100122	18,3150183150183	6,10500610500608	
0,677	-1,65255274725274	-1,22100122100122	8,54700854700852	6,10500610500608	
0,678	-1,65255274725274	3,66300366300365	3,66300366300365	1,22100122100122	
0,679	-1,65255274725274	8,54700854700852	-6,10500610500608	-3,66300366300365	
0,68	-1,65255274725274	3,66300366300365	-6,10500610500608	-3,66300366300365	
0,681	-1,65255274725274	-1,22100122100122	-10,989010989011	-8,54700854700852	
0,682	-1,65255274725274	-6,10500610500608	-10,989010989011	-8,54700854700852	
0,683	-1,65255274725274	-1,22100122100122	8,54700854700852	-8,54700854700852	
0,684	-1,65255274725274	-1,22100122100122	3,66300366300365	-8,54700854700852	
0,685	-1,65255274725274	-1,22100122100122	-1,22100122100122	-3,66300366300365	
0,686	-1,65255274725274	3,66300366300365	-10,989010989011	6,10500610500608	
0,687	-1,65255274725274	8,54700854700852	3,66300366300365	6,10500610500608	
0,688	-1,65255274725274	3,66300366300365	13,4310134310134	1,22100122100122	
0,689	-1,65255274725274	-6,10500610500608	13,4310134310134	1,22100122100122	
0,69	-1,65255274725274	-10,989010989011	8,54700854700852	1,22100122100122	
0,691	-1,65255274725274	-1,22100122100122	13,4310134310134	1,22100122100122	
0,692	-1,65255274725274	-1,22100122100122	23,1990231990231	-3,66300366300365	
0,693	-1,65255274725274	-1,22100122100122	18,3150183150183	-3,66300366300365	
0,694	-1,65255274725274	-1,22100122100122	18,3150183150183	1,22100122100122	
0,695	-1,65255274725274	-1,22100122100122	-6,10500610500608	6,10500610500608	
0,696	-1,65255274725274	3,66300366300365	-30,5250305250304	6,10500610500608	
0,697	-1,65255274725274	-1,22100122100122	-30,5250305250304	-3,66300366300365	
0,698	-1,65255274725274	3,66300366300365	-30,5250305250304	1,22100122100122	
0,699	-1,65255274725274	3,66300366300365	-62,2710622710621	1,22100122100122	
0,7	-1,65255274725274	3,66300366300365	-30,5250305250304	-3,66300366300365	
0,701	-1,65255274725274	3,66300366300365	-6,10500610500608	-3,66300366300365	
0,702	-1,65255274725274	3,66300366300365	-10,989010989011	1,22100122100122	
0,703	-1,65255274725274	-1,22100122100122	-10,989010989011	6,10500610500608	
0,704	-1,65255274725274	3,66300366300365	13,4310134310134	6,10500610500608	
0,705	-1,65255274725274	3,66300366300365	18,3150183150183	1,22100122100122	
0,706	-1,65255274725274	3,66300366300365	18,3150183150183	1,22100122100122	
0,707	-1,65255274725274	3,66300366300365	13,4310134310134	6,10500610500608	
0,708	-1,65255274725274	-1,22100122100122	8,54700854700852	1,22100122100122	
0,709	-1,65255274725274	-1,22100122100122	3,66300366300365	-3,66300366300365	
0,71	-1,65255274725274	-1,22100122100122	3,66300366300365	1,22100122100122	
0,711	-1,65255274725274	-1,22100122100122	3,66300366300365	1,22100122100122	
0,712	-1,65255274725274	3,66300366300365	3,66300366300365	6,10500610500608	
0,713	-1,65255274725274	3,66300366300365	3,66300366300365	-3,66300366300365	
0,714	-1,65255274725274	3,66300366300365	3,66300366300365	-3,66300366300365	
0,715	-1,65255274725274	-1,22100122100122	-1,22100122100122	1,22100122100122	
0,716	-1,65255274725274	3,66300366300365	-15,8730158730158	1,22100122100122	
0,717	-1,65255274725274	-1,22100122100122	-20,7570207570207	-3,66300366300365	
0,718	-1,65255274725274	-1,22100122100122	-10,989010989011	-3,66300366300365	
0,719	-1,65255274725274	-1,22100122100122	3,66300366300365	1,22100122100122	
0,72	-1,65255274725274	3,66300366300365	8,54700854700852	6,10500610500608	
0,721	-1,65255274725274	3,66300366300365	3,66300366300365	1,22100122100122	
0,722	-1,65255274725274	3,66300366300365	8,54700854700852	-3,66300366300365	
0,723	-1,65255274725274	-1,22100122100122	13,4310134310134	-3,66300366300365	
0,724	-1,65255274725274	3,66300366300365	3,66300366300365	-3,66300366300365	
0,725	-1,65255274725274	-1,22100122100122	-10,989010989011	1,22100122100122	
0,726	-1,65255274725274	-6,10500610500608	-10,989010989011	-3,66300366300365	
0,727	-1,65255274725274	-6,10500610500608	-10,989010989011	1,22100122100122	
0,728	-1,65255274725274	-6,10500610500608	-6,10500610500608	6,10500610500608	
0,729	-1,65255274725274	3,66300366300365	-6,10500610500608	6,10500610500608	
0,73	-1,65255274725274	3,66300366300365	-6,10500610500608	6,10500610500608	
0,731	-1,65255274725274	3,66300366300365	13,4310134310134	1,22100122100122	
0,732	-1,65255274725274	3,66300366300365	13,4310134310134	1,22100122100122	
0,733	-1,65255274725274	3,66300366300365	18,3150183150183	1,22100122100122	
0,734	-1,65255274725274	-1,22100122100122	3,66300366300365	1,22100122100122	
0,735	-1,65255274725274	-1,22100122100122	-1,22100122100122	1,22100122100122	
0,736	-1,65255274725274	3,66300366300365	3,66300366300365	6,10500610500608	
0,737	-1,65255274725274	3,66300366300365	-1,22100122100122	1,22100122100122	
0,738	-1,65255274725274	3,66300366300365	-25,6410256410256	1,22100122100122	
0,739	-1,65255274725274	3,66300366300365	-15,8730158730158	1,22100122100122	
0,74	-1,65255274725274	-1,22100122100122	-1,22100122100122	1,22100122100122	
0,741	-1,65255274725274	-1,22100122100122	3,66300366300365	-3,66300366300365	
0,742	-1,65255274725274	-10,989010989011	3,66300366300365	-3,66300366300365	
0,743	-1,65255274725274	-10,989010989011	3,66300366300365	-3,66300366300365	
0,744	-1,65255274725274	-1,22100122100122	-10,989010989011	1,22100122100122	
0,745	-1,65255274725274	3,66300366300365	-15,8730158730158	1,22100122100122	
0,746	-1,65255274725274	3,66300366300365	-25,6410256410256	1,22100122100122	
0,747	-1,65255274725274	3,66300366300365	-30,5250305250304	1,22100122100122	
0,748	-1,65255274725274	-1,22100122100122	-10,989010989011	-3,66300366300365	
0,749	-1,65255274725274	-1,22100122100122	8,54700854700852	1,22100122100122	
0,75	-1,65255274725274	-1,22100122100122	-10,989010989011	1,22100122100122	
0,751	-1,65255274725274	3,66300366300365	-20,7570207570207	1,22100122100122	
0,752	-1,65255274725274	3,66300366300365	13,4310134310134	6,10500610500608	
0,753	-1,65255274725274	3,66300366300365	23,1990231990231	1,22100122100122	
0,754	-1,65255274725274	3,66300366300365	13,4310134310134	6,10500610500608	
0,755	-1,65255274725274	-1,22100122100122	8,54700854700852	6,10500610500608	
0,756	-1,65255274725274	-1,22100122100122	3,66300366300365	1,22100122100122	
0,757	-1,65255274725274	3,66300366300365	-1,22100122100122	6,10500610500608	
0,758	-1,65255274725274	3,66300366300365	3,66300366300365	1,22100122100122	
0,759	-1,65255274725274	-6,10500610500608	3,66300366300365	-3,66300366300365	
0,76	-1,65255274725274	-6,10500610500608	-6,10500610500608	-3,66300366300365	
0,761	-1,65255274725274	-6,10500610500608	-6,10500610500608	1,22100122100122	
0,762	-1,65255274725274	3,66300366300365	-6,10500610500608	6,10500610500608	
0,763	-1,65255274725274	3,66300366300365	-1,22100122100122	-3,66300366300365	
0,764	-1,65255274725274	3,66300366300365	8,54700854700852	-3,66300366300365	
0,765	-1,65255274725274	3,66300366300365	23,1990231990231	1,22100122100122	
0,766	-1,65255274725274	3,66300366300365	13,4310134310134	6,10500610500608	
0,767	-1,65255274725274	3,66300366300365	8,54700854700852	1,22100122100122	
0,768	-1,65255274725274	3,66300366300365	8,54700854700852	1,22100122100122	
0,769	-1,65255274725274	3,66300366300365	3,66300366300365	1,22100122100122	
0,77	-1,65255274725274	3,66300366300365	-15,8730158730158	6,10500610500608	
0,771	-1,65255274725274	3,66300366300365	-25,6410256410256	1,22100122100122	
0,772	-1,65255274725274	3,66300366300365	-40,2930402930402	1,22100122100122	
0,773	-1,65255274725274	-6,10500610500608	-57,3870573870572	6,10500610500608	
0,774	-1,65255274725274	3,66300366300365	-25,6410256410256	6,10500610500608	
0,775	-1,65255274725274	-1,22100122100122	-10,989010989011	1,22100122100122	
0,776	-1,65255274725274	-1,22100122100122	-15,8730158730158	-3,66300366300365	
0,777	-1,65255274725274	-1,22100122100122	-1,22100122100122	-3,66300366300365	
0,778	-1,65255274725274	3,66300366300365	18,3150183150183	-3,66300366300365	
0,779	-1,65255274725274	3,66300366300365	28,083028083028	1,22100122100122	
0,78	-1,65255274725274	3,66300366300365	23,1990231990231	-3,66300366300365	
0,781	-1,65255274725274	-1,22100122100122	23,1990231990231	-3,66300366300365	
0,782	-1,65255274725274	-6,10500610500608	23,1990231990231	1,22100122100122	
0,783	-1,65255274725274	-6,10500610500608	8,54700854700852	-3,66300366300365	
0,784	-1,65255274725274	-6,10500610500608	-1,22100122100122	-3,66300366300365	
0,785	-1,65255274725274	-6,10500610500608	-10,989010989011	1,22100122100122	
0,786	-1,65255274725274	3,66300366300365	-6,10500610500608	1,22100122100122	
0,787	-1,65255274725274	3,66300366300365	-10,989010989011	6,10500610500608	
0,788	-1,65255274725274	3,66300366300365	-10,989010989011	6,10500610500608	
0,789	-1,65255274725274	3,66300366300365	3,66300366300365	1,22100122100122	
0,79	-1,65255274725274	3,66300366300365	13,4310134310134	1,22100122100122	
0,791	-1,65255274725274	3,66300366300365	13,4310134310134	1,22100122100122	
0,792	-1,65255274725274	-6,10500610500608	3,66300366300365	1,22100122100122	
0,793	-1,65255274725274	3,66300366300365	-6,10500610500608	-3,66300366300365	
0,794	-1,65255274725274	3,66300366300365	-20,7570207570207	6,10500610500608	
0,795	-1,65255274725274	3,66300366300365	-20,7570207570207	6,10500610500608	
0,796	-1,65255274725274	3,66300366300365	-10,989010989011	1,22100122100122	
0,797	-1,65255274725274	-1,22100122100122	-10,989010989011	-3,66300366300365	
0,798	-1,65255274725274	-1,22100122100122	-6,10500610500608	-3,66300366300365	
0,799	-1,65255274725274	3,66300366300365	-6,10500610500608	1,22100122100122	
0,8	-1,65255274725274	-1,22100122100122	18,3150183150183	1,22100122100122	
0,801	-1,65255274725274	-6,10500610500608	28,083028083028	1,22100122100122	
0,802	-1,65255274725274	-1,22100122100122	13,4310134310134	1,22100122100122	
0,803	-1,65255274725274	-1,22100122100122	-10,989010989011	6,10500610500608	
0,804	-1,65255274725274	3,66300366300365	-10,989010989011	6,10500610500608	
0,805	-1,65255274725274	3,66300366300365	-25,6410256410256	1,22100122100122	
0,806	-1,65255274725274	-1,22100122100122	-25,6410256410256	-3,66300366300365	
0,807	-1,65255274725274	-1,22100122100122	-10,989010989011	-8,54700854700852	
0,808	-1,65255274725274	3,66300366300365	-10,989010989011	-3,66300366300365	
0,809	-1,65255274725274	-1,22100122100122	18,3150183150183	1,22100122100122	
0,81	-1,65255274725274	3,66300366300365	28,083028083028	6,10500610500608	
0,811	-1,65255274725274	-1,22100122100122	18,3150183150183	6,10500610500608	
0,812	-1,65255274725274	-1,22100122100122	-15,8730158730158	10,989010989011	
0,813	-1,65255274725274	-1,22100122100122	-10,989010989011	6,10500610500608	
0,814	-1,65255274725274	-15,8730158730158	-15,8730158730158	-3,66300366300365	
0,815	-1,65255274725274	-6,10500610500608	-30,5250305250304	-3,66300366300365	
0,816	-1,65255274725274	-1,22100122100122	-10,989010989011	-8,54700854700852	
0,817	-1,65255274725274	3,66300366300365	-1,22100122100122	1,22100122100122	
0,818	-1,65255274725274	3,66300366300365	18,3150183150183	-3,66300366300365	
0,819	-1,65255274725274	3,66300366300365	28,083028083028	1,22100122100122	
0,82	-1,65255274725274	3,66300366300365	3,66300366300365	6,10500610500608	
0,821	-1,65255274725274	8,54700854700852	-10,989010989011	6,10500610500608	
0,822	-1,65255274725274	-1,22100122100122	-20,7570207570207	-3,66300366300365	
0,823	-1,65255274725274	-1,22100122100122	-10,989010989011	1,22100122100122	
0,824	-1,65255274725274	3,66300366300365	-1,22100122100122	1,22100122100122	
0,825	-1,65255274725274	3,66300366300365	-1,22100122100122	-3,66300366300365	
0,826	-1,65255274725274	-1,22100122100122	3,66300366300365	1,22100122100122	
0,827	-1,65255274725274	3,66300366300365	-1,22100122100122	1,22100122100122	
0,828	-1,65255274725274	3,66300366300365	-10,989010989011	6,10500610500608	
0,829	-1,65255274725274	3,66300366300365	-1,22100122100122	1,22100122100122	
0,83	-1,65255274725274	3,66300366300365	3,66300366300365	-3,66300366300365	
0,831	-1,65255274725274	3,66300366300365	3,66300366300365	-3,66300366300365	
0,832	-1,65255274725274	-1,22100122100122	3,66300366300365	1,22100122100122	
0,833	-1,65255274725274	3,66300366300365	8,54700854700852	-3,66300366300365	
0,834	-2,39622063492063	-1,22100122100122	23,1990231990231	-3,66300366300365	
0,835	-1,65255274725274	-1,22100122100122	18,3150183150183	1,22100122100122	
0,836	-2,39622063492063	-1,22100122100122	-10,989010989011	1,22100122100122	
0,837	-2,39622063492063	3,66300366300365	-20,7570207570207	1,22100122100122	
0,838	-1,65255274725274	-1,22100122100122	-15,8730158730158	-3,66300366300365	
0,839	-2,39622063492063	-6,10500610500608	-6,10500610500608	-8,54700854700852	
0,84	-2,39622063492063	-6,10500610500608	-15,8730158730158	-3,66300366300365	
0,841	-1,65255274725274	-1,22100122100122	-52,5030525030523	1,22100122100122	
0,842	-1,65255274725274	3,66300366300365	-30,5250305250304	6,10500610500608	
0,843	-1,65255274725274	3,66300366300365	-1,22100122100122	6,10500610500608	
0,844	-1,65255274725274	8,54700854700852	8,54700854700852	10,989010989011	
0,845	-1,65255274725274	3,66300366300365	8,54700854700852	6,10500610500608	
0,846	-1,65255274725274	3,66300366300365	13,4310134310134	6,10500610500608	
0,847	-1,65255274725274	-1,22100122100122	18,3150183150183	1,22100122100122	
0,848	-1,65255274725274	-6,10500610500608	18,3150183150183	-3,66300366300365	
0,849	-1,65255274725274	3,66300366300365	23,1990231990231	-3,66300366300365	
0,85	-1,65255274725274	-1,22100122100122	28,083028083028	-3,66300366300365	
0,851	-1,65255274725274	-1,22100122100122	3,66300366300365	-3,66300366300365	
0,852	-1,65255274725274	-1,22100122100122	-6,10500610500608	-3,66300366300365	
0,853	-2,39622063492063	3,66300366300365	-6,10500610500608	1,22100122100122	
0,854	-1,65255274725274	3,66300366300365	-10,989010989011	6,10500610500608	
0,855	-1,65255274725274	-1,22100122100122	3,66300366300365	1,22100122100122	
0,856	-1,65255274725274	-1,22100122100122	13,4310134310134	1,22100122100122	
0,857	-2,39622063492063	3,66300366300365	3,66300366300365	6,10500610500608	
0,858	-1,65255274725274	3,66300366300365	-6,10500610500608	1,22100122100122	
0,859	-2,39622063492063	-1,22100122100122	-15,8730158730158	-3,66300366300365	
0,86	-2,39622063492063	-1,22100122100122	-15,8730158730158	1,22100122100122	
0,861	-1,65255274725274	-1,22100122100122	-15,8730158730158	6,10500610500608	
0,862	-2,39622063492063	3,66300366300365	-25,6410256410256	1,22100122100122	
0,863	-1,65255274725274	3,66300366300365	-25,6410256410256	1,22100122100122	
0,864	-1,65255274725274	3,66300366300365	-10,989010989011	-3,66300366300365	
0,865	-1,65255274725274	3,66300366300365	-1,22100122100122	1,22100122100122	
0,866	-1,65255274725274	3,66300366300365	-1,22100122100122	-3,66300366300365	
0,867	-1,65255274725274	-1,22100122100122	3,66300366300365	-3,66300366300365	
0,868	-1,65255274725274	-1,22100122100122	8,54700854700852	-3,66300366300365	
0,869	-2,39622063492063	-1,22100122100122	23,1990231990231	1,22100122100122	
0,87	-1,65255274725274	3,66300366300365	23,1990231990231	6,10500610500608	
0,871	-2,39622063492063	3,66300366300365	13,4310134310134	1,22100122100122	
0,872	-1,65255274725274	3,66300366300365	3,66300366300365	1,22100122100122	
0,873	-1,65255274725274	-1,22100122100122	-6,10500610500608	1,22100122100122	
0,874	-2,39622063492063	3,66300366300365	-1,22100122100122	1,22100122100122	
0,875	-1,65255274725274	-1,22100122100122	-1,22100122100122	-3,66300366300365	
0,876	-2,39622063492063	-1,22100122100122	-10,989010989011	-3,66300366300365	
0,877	-1,65255274725274	-1,22100122100122	-20,7570207570207	1,22100122100122	
0,878	-1,65255274725274	3,66300366300365	-15,8730158730158	1,22100122100122	
0,879	-2,39622063492063	3,66300366300365	-1,22100122100122	-3,66300366300365	
0,88	-2,39622063492063	-1,22100122100122	-1,22100122100122	1,22100122100122	
0,881	-1,65255274725274	-1,22100122100122	-10,989010989011	1,22100122100122	
0,882	-1,65255274725274	-1,22100122100122	-15,8730158730158	1,22100122100122	
0,883	-1,65255274725274	-1,22100122100122	-10,989010989011	1,22100122100122	
0,884	-1,65255274725274	-1,22100122100122	-1,22100122100122	-3,66300366300365	
0,885	-1,65255274725274	-1,22100122100122	-10,989010989011	1,22100122100122	
0,886	-1,65255274725274	3,66300366300365	3,66300366300365	1,22100122100122	
0,887	-1,65255274725274	3,66300366300365	18,3150183150183	6,10500610500608	
0,888	-1,65255274725274	3,66300366300365	18,3150183150183	6,10500610500608	
0,889	-1,65255274725274	-1,22100122100122	28,083028083028	1,22100122100122	
0,89	-1,65255274725274	3,66300366300365	37,8510378510377	6,10500610500608	
0,891	-1,65255274725274	3,66300366300365	28,083028083028	1,22100122100122	
0,892	-1,65255274725274	-1,22100122100122	13,4310134310134	-3,66300366300365	
0,893	-1,65255274725274	-1,22100122100122	-1,22100122100122	1,22100122100122	
0,894	-1,65255274725274	3,66300366300365	-35,4090354090353	6,10500610500608	
0,895	-2,39622063492063	3,66300366300365	-57,3870573870572	6,10500610500608	
0,896	-1,65255274725274	-1,22100122100122	-52,5030525030523	6,10500610500608	
0,897	-1,65255274725274	-1,22100122100122	-57,3870573870572	1,22100122100122	
0,898	-1,65255274725274	-1,22100122100122	-35,4090354090353	1,22100122100122	
0,899	-1,65255274725274	3,66300366300365	3,66300366300365	6,10500610500608	
0,9	-1,65255274725274	3,66300366300365	23,1990231990231	1,22100122100122	
0,901	-1,65255274725274	-1,22100122100122	18,3150183150183	1,22100122100122	
0,902	-2,39622063492063	3,66300366300365	8,54700854700852	1,22100122100122	
0,903	-1,65255274725274	3,66300366300365	3,66300366300365	6,10500610500608	
0,904	-1,65255274725274	3,66300366300365	3,66300366300365	6,10500610500608	
0,905	-1,65255274725274	3,66300366300365	8,54700854700852	1,22100122100122	
0,906	-1,65255274725274	3,66300366300365	8,54700854700852	-3,66300366300365	
0,907	-1,65255274725274	-6,10500610500608	3,66300366300365	-3,66300366300365	
0,908	-1,65255274725274	-10,989010989011	3,66300366300365	-8,54700854700852	
0,909	-1,65255274725274	-6,10500610500608	3,66300366300365	-3,66300366300365	
0,91	-1,65255274725274	-6,10500610500608	8,54700854700852	-8,54700854700852	
0,911	-2,39622063492063	-1,22100122100122	3,66300366300365	1,22100122100122	
0,912	-1,65255274725274	3,66300366300365	3,66300366300365	1,22100122100122	
0,913	-2,39622063492063	3,66300366300365	3,66300366300365	1,22100122100122	
0,914	-2,39622063492063	3,66300366300365	3,66300366300365	1,22100122100122	
0,915	-1,65255274725274	3,66300366300365	3,66300366300365	6,10500610500608	
0,916	-2,39622063492063	3,66300366300365	-6,10500610500608	1,22100122100122	
0,917	-2,39622063492063	3,66300366300365	-10,989010989011	1,22100122100122	
0,918	-2,39622063492063	3,66300366300365	-15,8730158730158	6,10500610500608	
0,919	-1,65255274725274	3,66300366300365	-10,989010989011	6,10500610500608	
0,92	-2,39622063492063	8,54700854700852	-6,10500610500608	6,10500610500608	
0,921	-1,65255274725274	3,66300366300365	-1,22100122100122	1,22100122100122	
0,922	-2,39622063492063	8,54700854700852	-1,22100122100122	1,22100122100122	
0,923	-2,39622063492063	-1,22100122100122	3,66300366300365	1,22100122100122	
0,924	-2,39622063492063	-1,22100122100122	8,54700854700852	1,22100122100122	
0,925	-2,39622063492063	-1,22100122100122	8,54700854700852	-3,66300366300365	
0,926	-2,39622063492063	-1,22100122100122	13,4310134310134	-3,66300366300365	
0,927	-2,39622063492063	-6,10500610500608	-1,22100122100122	-3,66300366300365	
0,928	-2,39622063492063	-1,22100122100122	-10,989010989011	1,22100122100122	
0,929	-2,39622063492063	3,66300366300365	-10,989010989011	-3,66300366300365	
0,93	-2,39622063492063	3,66300366300365	-10,989010989011	-3,66300366300365	
0,931	-2,39622063492063	3,66300366300365	-6,10500610500608	1,22100122100122	
0,932	-1,65255274725274	-1,22100122100122	8,54700854700852	1,22100122100122	
0,933	-1,65255274725274	-1,22100122100122	18,3150183150183	1,22100122100122	
0,934	-2,39622063492063	-1,22100122100122	18,3150183150183	-3,66300366300365	
0,935	-2,39622063492063	3,66300366300365	18,3150183150183	1,22100122100122	
0,936	-2,39622063492063	3,66300366300365	3,66300366300365	1,22100122100122	
0,937	-1,65255274725274	3,66300366300365	-10,989010989011	1,22100122100122	
0,938	-1,65255274725274	-1,22100122100122	-20,7570207570207	1,22100122100122	
0,939	-2,39622063492063	-1,22100122100122	-25,6410256410256	1,22100122100122	
0,94	-2,39622063492063	-6,10500610500608	-30,5250305250304	1,22100122100122	
0,941	-2,39622063492063	-6,10500610500608	-10,989010989011	1,22100122100122	
0,942	-2,39622063492063	-6,10500610500608	-20,7570207570207	1,22100122100122	
0,943	-2,39622063492063	-6,10500610500608	-20,7570207570207	1,22100122100122	
0,944	-2,39622063492063	-1,22100122100122	8,54700854700852	6,10500610500608	
0,945	-2,39622063492063	3,66300366300365	13,4310134310134	6,10500610500608	
0,946	-2,39622063492063	-1,22100122100122	8,54700854700852	6,10500610500608	
0,947	-2,39622063492063	3,66300366300365	3,66300366300365	1,22100122100122	
0,948	-2,39622063492063	3,66300366300365	3,66300366300365	-3,66300366300365	
0,949	-2,39622063492063	3,66300366300365	3,66300366300365	1,22100122100122	
0,95	-2,39622063492063	3,66300366300365	8,54700854700852	1,22100122100122	
0,951	-2,39622063492063	3,66300366300365	13,4310134310134	1,22100122100122	
0,952	-2,39622063492063	-1,22100122100122	8,54700854700852	1,22100122100122	
0,953	-2,39622063492063	3,66300366300365	8,54700854700852	1,22100122100122	
0,954	-2,39622063492063	3,66300366300365	-6,10500610500608	-3,66300366300365	
0,955	-1,65255274725274	3,66300366300365	-10,989010989011	-3,66300366300365	
0,956	-1,65255274725274	-1,22100122100122	-15,8730158730158	-3,66300366300365	
0,957	-1,65255274725274	3,66300366300365	-15,8730158730158	6,10500610500608	
0,958	-2,39622063492063	3,66300366300365	-10,989010989011	6,10500610500608	
0,959	-2,39622063492063	-1,22100122100122	-6,10500610500608	6,10500610500608	
0,96	-2,39622063492063	-1,22100122100122	-1,22100122100122	1,22100122100122	
0,961	-2,39622063492063	-1,22100122100122	13,4310134310134	1,22100122100122	
0,962	-2,39622063492063	3,66300366300365	18,3150183150183	-3,66300366300365	
0,963	-2,39622063492063	3,66300366300365	18,3150183150183	-3,66300366300365	
0,964	-2,39622063492063	3,66300366300365	8,54700854700852	-3,66300366300365	
0,965	-2,39622063492063	-1,22100122100122	-6,10500610500608	-3,66300366300365	
0,966	-2,39622063492063	3,66300366300365	-6,10500610500608	1,22100122100122	
0,967	-1,65255274725274	3,66300366300365	-10,989010989011	-3,66300366300365	
0,968	-2,39622063492063	-1,22100122100122	-20,7570207570207	1,22100122100122	
0,969	-3,13988852258851	-1,22100122100122	-15,8730158730158	1,22100122100122	
0,97	-2,39622063492063	-1,22100122100122	-1,22100122100122	6,10500610500608	
0,971	-2,39622063492063	-1,22100122100122	-10,989010989011	1,22100122100122	
0,972	-2,39622063492063	-1,22100122100122	-1,22100122100122	-3,66300366300365	
0,973	-2,39622063492063	-1,22100122100122	3,66300366300365	-8,54700854700852	
0,974	-1,65255274725274	3,66300366300365	-10,989010989011	-8,54700854700852	
0,975	-2,39622063492063	3,66300366300365	-10,989010989011	-3,66300366300365	
0,976	-2,39622063492063	3,66300366300365	3,66300366300365	6,10500610500608	
0,977	-2,39622063492063	3,66300366300365	8,54700854700852	10,989010989011	
0,978	-2,39622063492063	3,66300366300365	-6,10500610500608	10,989010989011	
0,979	-2,39622063492063	3,66300366300365	-1,22100122100122	10,989010989011	
0,98	-2,39622063492063	-1,22100122100122	23,1990231990231	6,10500610500608	
0,981	-2,39622063492063	-1,22100122100122	13,4310134310134	1,22100122100122	
0,982	-2,39622063492063	-1,22100122100122	3,66300366300365	-3,66300366300365	
0,983	-2,39622063492063	-1,22100122100122	-6,10500610500608	-3,66300366300365	
0,984	-2,39622063492063	-1,22100122100122	-10,989010989011	-3,66300366300365	
0,985	-2,39622063492063	-1,22100122100122	-35,4090354090353	-8,54700854700852	
0,986	-2,39622063492063	-6,10500610500608	-40,2930402930402	-3,66300366300365	
0,987	-2,39622063492063	-1,22100122100122	-25,6410256410256	1,22100122100122	
0,988	-2,39622063492063	-1,22100122100122	-10,989010989011	1,22100122100122	
0,989	-2,39622063492063	-1,22100122100122	3,66300366300365	1,22100122100122	
0,99	-2,39622063492063	-1,22100122100122	13,4310134310134	1,22100122100122	
0,991	-2,39622063492063	3,66300366300365	28,083028083028	1,22100122100122	
0,992	-2,39622063492063	-1,22100122100122	23,1990231990231	-3,66300366300365	
0,993	-2,39622063492063	-1,22100122100122	23,1990231990231	1,22100122100122	
0,994	-2,39622063492063	3,66300366300365	42,7350427350426	1,22100122100122	
0,995	-2,39622063492063	3,66300366300365	47,6190476190475	1,22100122100122	
0,996	-2,39622063492063	3,66300366300365	-1,22100122100122	1,22100122100122	
0,997	-1,65255274725274	3,66300366300365	-10,989010989011	1,22100122100122	
0,998	-2,39622063492063	-1,22100122100122	-20,7570207570207	1,22100122100122	
0,999	-2,39622063492063	3,66300366300365	-25,6410256410256	1,22100122100122	
1	-2,39622063492063	-1,22100122100122	-20,7570207570207	-3,66300366300365	
1,001	-2,39622063492063	-1,22100122100122	-10,989010989011	1,22100122100122	
1,002	-2,39622063492063	-1,22100122100122	-1,22100122100122	1,22100122100122	
1,003	-2,39622063492063	-1,22100122100122	-6,10500610500608	6,10500610500608	
1,004	-2,39622063492063	3,66300366300365	13,4310134310134	6,10500610500608	
1,005	-2,39622063492063	3,66300366300365	3,66300366300365	6,10500610500608	
1,006	-2,39622063492063	-1,22100122100122	-10,989010989011	1,22100122100122	
1,007	-2,39622063492063	-1,22100122100122	-15,8730158730158	1,22100122100122	
1,008	-2,39622063492063	-1,22100122100122	-15,8730158730158	-3,66300366300365	
1,009	-2,39622063492063	-1,22100122100122	-20,7570207570207	-3,66300366300365	
1,01	-2,39622063492063	3,66300366300365	-20,7570207570207	-3,66300366300365	
1,011	-2,39622063492063	3,66300366300365	3,66300366300365	-3,66300366300365	
1,012	-1,65255274725274	3,66300366300365	3,66300366300365	1,22100122100122	
1,013	-2,39622063492063	-1,22100122100122	23,1990231990231	1,22100122100122	
1,014	-2,39622063492063	3,66300366300365	23,1990231990231	1,22100122100122	
1,015	-2,39622063492063	-1,22100122100122	18,3150183150183	1,22100122100122	
1,016	-2,39622063492063	3,66300366300365	-10,989010989011	1,22100122100122	
1,017	-2,39622063492063	-1,22100122100122	-20,7570207570207	-3,66300366300365	
1,018	-2,39622063492063	3,66300366300365	-20,7570207570207	1,22100122100122	
1,019	-2,39622063492063	3,66300366300365	-10,989010989011	1,22100122100122	
1,02	-2,39622063492063	3,66300366300365	-6,10500610500608	6,10500610500608	
1,021	-2,39622063492063	3,66300366300365	-30,5250305250304	6,10500610500608	
1,022	-2,39622063492063	3,66300366300365	-10,989010989011	-3,66300366300365	
1,023	-2,39622063492063	3,66300366300365	-1,22100122100122	-3,66300366300365	
1,024	-2,39622063492063	3,66300366300365	-1,22100122100122	1,22100122100122	
1,025	-2,39622063492063	-1,22100122100122	3,66300366300365	-3,66300366300365	
1,026	-2,39622063492063	-6,10500610500608	3,66300366300365	-3,66300366300365	
1,027	-2,39622063492063	-1,22100122100122	-10,989010989011	1,22100122100122	
1,028	-2,39622063492063	-1,22100122100122	3,66300366300365	-3,66300366300365	
1,029	-2,39622063492063	-6,10500610500608	13,4310134310134	1,22100122100122	
1,03	-2,39622063492063	-1,22100122100122	18,3150183150183	1,22100122100122	
1,031	-2,39622063492063	3,66300366300365	23,1990231990231	1,22100122100122	
1,032	-2,39622063492063	3,66300366300365	13,4310134310134	6,10500610500608	
1,033	-2,39622063492063	3,66300366300365	3,66300366300365	1,22100122100122	
1,034	-2,39622063492063	-1,22100122100122	-1,22100122100122	-3,66300366300365	
1,035	-2,39622063492063	3,66300366300365	-1,22100122100122	1,22100122100122	
1,036	-2,39622063492063	3,66300366300365	-6,10500610500608	1,22100122100122	
1,037	-2,39622063492063	3,66300366300365	-6,10500610500608	6,10500610500608	
1,038	-2,39622063492063	3,66300366300365	-6,10500610500608	6,10500610500608	
1,039	-2,39622063492063	-1,22100122100122	-6,10500610500608	1,22100122100122	
1,04	-2,39622063492063	-1,22100122100122	-6,10500610500608	1,22100122100122	
1,041	-2,39622063492063	-1,22100122100122	-1,22100122100122	-3,66300366300365	
1,042	-2,39622063492063	-6,10500610500608	-6,10500610500608	-3,66300366300365	
1,043	-2,39622063492063	-1,22100122100122	3,66300366300365	-3,66300366300365	
1,044	-2,39622063492063	3,66300366300365	3,66300366300365	1,22100122100122	
1,045	-2,39622063492063	3,66300366300365	18,3150183150183	1,22100122100122	
1,046	-2,39622063492063	3,66300366300365	28,083028083028	1,22100122100122	
1,047	-2,39622063492063	3,66300366300365	18,3150183150183	-3,66300366300365	
1,048	-2,39622063492063	3,66300366300365	3,66300366300365	-3,66300366300365	
1,049	-2,39622063492063	3,66300366300365	-20,7570207570207	1,22100122100122	
1,05	-2,39622063492063	3,66300366300365	-20,7570207570207	-3,66300366300365	
1,051	-2,39622063492063	-1,22100122100122	-30,5250305250304	-3,66300366300365	
1,052	-2,39622063492063	-1,22100122100122	-45,177045177045	6,10500610500608	
1,053	-2,39622063492063	-1,22100122100122	-52,5030525030523	10,989010989011	
1,054	-2,39622063492063	3,66300366300365	-15,8730158730158	10,989010989011	
1,055	-2,39622063492063	3,66300366300365	23,1990231990231	10,989010989011	
1,056	-2,39622063492063	3,66300366300365	3,66300366300365	6,10500610500608	
1,057	-2,39622063492063	-1,22100122100122	-15,8730158730158	6,10500610500608	
1,058	-2,39622063492063	-1,22100122100122	18,3150183150183	-3,66300366300365	
1,059	-2,39622063492063	-6,10500610500608	23,1990231990231	-3,66300366300365	
1,06	-2,39622063492063	-6,10500610500608	3,66300366300365	-3,66300366300365	
1,061	-2,39622063492063	-6,10500610500608	-6,10500610500608	-3,66300366300365	
1,062	-2,39622063492063	3,66300366300365	3,66300366300365	-3,66300366300365	
1,063	-2,39622063492063	3,66300366300365	8,54700854700852	-3,66300366300365	
1,064	-2,39622063492063	3,66300366300365	28,083028083028	-3,66300366300365	
1,065	-2,39622063492063	3,66300366300365	28,083028083028	1,22100122100122	
1,066	-2,39622063492063	3,66300366300365	-10,989010989011	1,22100122100122	
1,067	-2,39622063492063	-1,22100122100122	-10,989010989011	-3,66300366300365	
1,068	-2,39622063492063	-1,22100122100122	18,3150183150183	-3,66300366300365	
1,069	-1,65255274725274	3,66300366300365	13,4310134310134	1,22100122100122	
1,07	-2,39622063492063	3,66300366300365	3,66300366300365	6,10500610500608	
1,071	-2,39622063492063	3,66300366300365	-6,10500610500608	6,10500610500608	
1,072	-2,39622063492063	-1,22100122100122	-10,989010989011	6,10500610500608	
1,073	-2,39622063492063	-6,10500610500608	-1,22100122100122	1,22100122100122	
1,074	-2,39622063492063	-1,22100122100122	-6,10500610500608	6,10500610500608	
1,075	-2,39622063492063	-1,22100122100122	-10,989010989011	1,22100122100122	
1,076	-2,39622063492063	3,66300366300365	-10,989010989011	-3,66300366300365	
1,077	-2,39622063492063	3,66300366300365	-10,989010989011	-3,66300366300365	
1,078	-2,39622063492063	-1,22100122100122	-10,989010989011	1,22100122100122	
1,079	-2,39622063492063	-1,22100122100122	-20,7570207570207	-3,66300366300365	
1,08	-2,39622063492063	-6,10500610500608	-10,989010989011	1,22100122100122	
1,081	-2,39622063492063	-1,22100122100122	-1,22100122100122	-3,66300366300365	
1,082	-2,39622063492063	-1,22100122100122	-1,22100122100122	1,22100122100122	
1,083	-2,39622063492063	-1,22100122100122	-6,10500610500608	-3,66300366300365	
1,084	-2,39622063492063	3,66300366300365	-10,989010989011	6,10500610500608	
1,085	-1,65255274725274	-1,22100122100122	8,54700854700852	6,10500610500608	
1,086	-1,65255274725274	-1,22100122100122	23,1990231990231	6,10500610500608	
1,087	-2,39622063492063	-1,22100122100122	18,3150183150183	6,10500610500608	
1,088	-2,39622063492063	3,66300366300365	3,66300366300365	-8,54700854700852	
1,089	-2,39622063492063	8,54700854700852	3,66300366300365	-3,66300366300365	
1,09	-2,39622063492063	8,54700854700852	-6,10500610500608	1,22100122100122	
1,091	-2,39622063492063	3,66300366300365	-6,10500610500608	10,989010989011	
1,092	-2,39622063492063	-1,22100122100122	-10,989010989011	10,989010989011	
1,093	-2,39622063492063	-1,22100122100122	-20,7570207570207	10,989010989011	
1,094	-2,39622063492063	3,66300366300365	-15,8730158730158	6,10500610500608	
1,095	-2,39622063492063	3,66300366300365	-1,22100122100122	6,10500610500608	
1,096	-1,65255274725274	3,66300366300365	3,66300366300365	-3,66300366300365	
1,097	-2,39622063492063	3,66300366300365	3,66300366300365	-3,66300366300365	
1,098	-2,39622063492063	-6,10500610500608	-1,22100122100122	-8,54700854700852	
1,099	-2,39622063492063	-6,10500610500608	-6,10500610500608	-8,54700854700852	
1,1	-2,39622063492063	-6,10500610500608	3,66300366300365	-8,54700854700852	
1,101	-2,39622063492063	-1,22100122100122	3,66300366300365	-3,66300366300365	
1,102	-2,39622063492063	-1,22100122100122	-1,22100122100122	-3,66300366300365	
1,103	-2,39622063492063	3,66300366300365	-1,22100122100122	6,10500610500608	
1,104	-2,39622063492063	3,66300366300365	-1,22100122100122	1,22100122100122	
1,105	-2,39622063492063	-1,22100122100122	-1,22100122100122	6,10500610500608	
1,106	-2,39622063492063	-10,989010989011	3,66300366300365	1,22100122100122	
1,107	-2,39622063492063	-1,22100122100122	-1,22100122100122	6,10500610500608	
1,108	-2,39622063492063	3,66300366300365	-6,10500610500608	1,22100122100122	
1,109	-2,39622063492063	3,66300366300365	8,54700854700852	1,22100122100122	
1,11	-2,39622063492063	3,66300366300365	23,1990231990231	6,10500610500608	
1,111	-2,39622063492063	3,66300366300365	13,4310134310134	1,22100122100122	
1,112	-2,39622063492063	3,66300366300365	-1,22100122100122	6,10500610500608	
1,113	-2,39622063492063	3,66300366300365	-10,989010989011	1,22100122100122	
1,114	-2,39622063492063	3,66300366300365	-10,989010989011	-3,66300366300365	
1,115	-2,39622063492063	3,66300366300365	-10,989010989011	1,22100122100122	
1,116	-2,39622063492063	3,66300366300365	-1,22100122100122	-3,66300366300365	
1,117	-2,39622063492063	-6,10500610500608	-20,7570207570207	-3,66300366300365	
1,118	-1,65255274725274	-6,10500610500608	-10,989010989011	1,22100122100122	
1,119	-1,65255274725274	-6,10500610500608	3,66300366300365	6,10500610500608	
1,12	-2,39622063492063	3,66300366300365	-1,22100122100122	6,10500610500608	
1,121	-2,39622063492063	8,54700854700852	-10,989010989011	6,10500610500608	
1,122	-2,39622063492063	8,54700854700852	-20,7570207570207	1,22100122100122	
1,123	-2,39622063492063	3,66300366300365	-15,8730158730158	-3,66300366300365	
1,124	-2,39622063492063	3,66300366300365	-10,989010989011	1,22100122100122	
1,125	-2,39622063492063	-1,22100122100122	-1,22100122100122	-3,66300366300365	
1,126	-1,65255274725274	-1,22100122100122	-6,10500610500608	-8,54700854700852	
1,127	-2,39622063492063	-1,22100122100122	3,66300366300365	-3,66300366300365	
1,128	-1,65255274725274	3,66300366300365	18,3150183150183	-3,66300366300365	
1,129	-2,39622063492063	3,66300366300365	23,1990231990231	-3,66300366300365	
1,13	-1,65255274725274	3,66300366300365	18,3150183150183	-3,66300366300365	
1,131	-2,39622063492063	-1,22100122100122	18,3150183150183	-3,66300366300365	
1,132	-2,39622063492063	3,66300366300365	8,54700854700852	1,22100122100122	
1,133	-2,39622063492063	3,66300366300365	3,66300366300365	1,22100122100122	
1,134	-2,39622063492063	-1,22100122100122	-15,8730158730158	-3,66300366300365	
1,135	-2,39622063492063	3,66300366300365	-30,5250305250304	-8,54700854700852	
1,136	-2,39622063492063	3,66300366300365	-20,7570207570207	-3,66300366300365	
1,137	-2,39622063492063	3,66300366300365	-10,989010989011	6,10500610500608	
1,138	-2,39622063492063	3,66300366300365	-10,989010989011	6,10500610500608	
1,139	-2,39622063492063	-1,22100122100122	-10,989010989011	1,22100122100122	
1,14	-2,39622063492063	-6,10500610500608	-6,10500610500608	6,10500610500608	
1,141	-2,39622063492063	-1,22100122100122	-6,10500610500608	1,22100122100122	
1,142	-2,39622063492063	-6,10500610500608	-10,989010989011	-3,66300366300365	
1,143	-2,39622063492063	-10,989010989011	-10,989010989011	-8,54700854700852	
1,144	-2,39622063492063	-10,989010989011	-10,989010989011	-3,66300366300365	
1,145	-2,39622063492063	-1,22100122100122	8,54700854700852	1,22100122100122	
1,146	-2,39622063492063	3,66300366300365	28,083028083028	1,22100122100122	
1,147	-2,39622063492063	8,54700854700852	3,66300366300365	1,22100122100122	
1,148	-2,39622063492063	3,66300366300365	-6,10500610500608	-3,66300366300365	
1,149	-2,39622063492063	3,66300366300365	-10,989010989011	1,22100122100122	
1,15	-2,39622063492063	-1,22100122100122	-10,989010989011	-3,66300366300365	
1,151	-2,39622063492063	-1,22100122100122	-10,989010989011	1,22100122100122	
1,152	-2,39622063492063	3,66300366300365	-6,10500610500608	6,10500610500608	
1,153	-2,39622063492063	3,66300366300365	8,54700854700852	6,10500610500608	
1,154	-2,39622063492063	8,54700854700852	23,1990231990231	1,22100122100122	
1,155	-2,39622063492063	8,54700854700852	28,083028083028	6,10500610500608	
1,156	-2,39622063492063	3,66300366300365	32,9670329670329	6,10500610500608	
1,157	-2,39622063492063	3,66300366300365	-1,22100122100122	1,22100122100122	
1,158	-2,39622063492063	3,66300366300365	-10,989010989011	-3,66300366300365	
1,159	-2,39622063492063	-1,22100122100122	-1,22100122100122	-3,66300366300365	
1,16	-2,39622063492063	-1,22100122100122	8,54700854700852	-3,66300366300365	
1,161	-2,39622063492063	3,66300366300365	8,54700854700852	1,22100122100122	
1,162	-2,39622063492063	3,66300366300365	3,66300366300365	1,22100122100122	
1,163	-2,39622063492063	-1,22100122100122	8,54700854700852	-3,66300366300365	
1,164	-2,39622063492063	-1,22100122100122	3,66300366300365	1,22100122100122	
1,165	-2,39622063492063	-6,10500610500608	3,66300366300365	1,22100122100122	
1,166	-2,39622063492063	3,66300366300365	-10,989010989011	6,10500610500608	
1,167	-2,39622063492063	3,66300366300365	-20,7570207570207	1,22100122100122	
1,168	-2,39622063492063	3,66300366300365	-30,5250305250304	-3,66300366300365	
1,169	-2,39622063492063	-1,22100122100122	-35,4090354090353	-3,66300366300365	
1,17	-2,39622063492063	-6,10500610500608	-25,6410256410256	1,22100122100122	
1,171	-2,39622063492063	-1,22100122100122	-35,4090354090353	1,22100122100122	
1,172	-2,39622063492063	-1,22100122100122	8,54700854700852	-3,66300366300365	
1,173	-2,39622063492063	-1,22100122100122	28,083028083028	1,22100122100122	
1,174	-1,65255274725274	8,54700854700852	18,3150183150183	1,22100122100122	
1,175	-2,39622063492063	3,66300366300365	-10,989010989011	1,22100122100122	
1,176	-1,65255274725274	-1,22100122100122	-30,5250305250304	1,22100122100122	
1,177	-2,39622063492063	-1,22100122100122	-30,5250305250304	1,22100122100122	
1,178	-1,65255274725274	3,66300366300365	-10,989010989011	-13,4310134310134	
1,179	-2,39622063492063	3,66300366300365	3,66300366300365	-8,54700854700852	
1,18	-2,39622063492063	3,66300366300365	13,4310134310134	-3,66300366300365	
1,181	-2,39622063492063	3,66300366300365	28,083028083028	6,10500610500608	
1,182	-2,39622063492063	3,66300366300365	18,3150183150183	15,8730158730158	
1,183	-2,39622063492063	-1,22100122100122	47,6190476190475	20,7570207570207	
1,184	-2,39622063492063	-1,22100122100122	47,6190476190475	10,989010989011	
1,185	-2,39622063492063	-1,22100122100122	23,1990231990231	6,10500610500608	
1,186	-2,39622063492063	-6,10500610500608	-15,8730158730158	-3,66300366300365	
1,187	-2,39622063492063	3,66300366300365	-20,7570207570207	-3,66300366300365	
1,188	-2,39622063492063	3,66300366300365	-30,5250305250304	-8,54700854700852	
1,189	-1,65255274725274	-6,10500610500608	-35,4090354090353	-13,4310134310134	
1,19	-1,65255274725274	-10,989010989011	-40,2930402930402	-8,54700854700852	
1,191	-1,65255274725274	-1,22100122100122	-52,5030525030523	-3,66300366300365	
1,192	-1,65255274725274	-1,22100122100122	-15,8730158730158	-3,66300366300365	
1,193	-1,65255274725274	3,66300366300365	23,1990231990231	1,22100122100122	
1,194	-1,65255274725274	8,54700854700852	28,083028083028	6,10500610500608	
1,195	-1,65255274725274	8,54700854700852	23,1990231990231	6,10500610500608	
1,196	-1,65255274725274	3,66300366300365	8,54700854700852	6,10500610500608	
1,197	-1,65255274725274	-1,22100122100122	-1,22100122100122	1,22100122100122	
1,198	-1,65255274725274	-6,10500610500608	-6,10500610500608	1,22100122100122	
1,199	-2,39622063492063	3,66300366300365	-10,989010989011	6,10500610500608	
1,2	-1,65255274725274	3,66300366300365	-10,989010989011	1,22100122100122	
1,201	-1,65255274725274	-1,22100122100122	-6,10500610500608	6,10500610500608	
1,202	-2,39622063492063	3,66300366300365	-10,989010989011	1,22100122100122	
1,203	-2,39622063492063	-1,22100122100122	-6,10500610500608	-3,66300366300365	
1,204	-2,39622063492063	-1,22100122100122	13,4310134310134	-3,66300366300365	
1,205	-2,39622063492063	-1,22100122100122	8,54700854700852	1,22100122100122	
1,206	-2,39622063492063	3,66300366300365	3,66300366300365	-3,66300366300365	
1,207	-2,39622063492063	3,66300366300365	3,66300366300365	-3,66300366300365	
1,208	-2,39622063492063	3,66300366300365	3,66300366300365	-3,66300366300365	
1,209	-3,13988852258851	-1,22100122100122	-6,10500610500608	-3,66300366300365	
1,21	-1,65255274725274	3,66300366300365	-1,22100122100122	1,22100122100122	
1,211	-2,39622063492063	3,66300366300365	-6,10500610500608	1,22100122100122	
1,212	-2,39622063492063	-1,22100122100122	-1,22100122100122	6,10500610500608	
1,213	-2,39622063492063	-1,22100122100122	3,66300366300365	1,22100122100122	
1,214	-2,39622063492063	-6,10500610500608	8,54700854700852	1,22100122100122	
1,215	-2,39622063492063	-1,22100122100122	8,54700854700852	6,10500610500608	
1,216	-2,39622063492063	3,66300366300365	3,66300366300365	6,10500610500608	
1,217	-1,65255274725274	-6,10500610500608	-1,22100122100122	1,22100122100122	
1,218	-2,39622063492063	-6,10500610500608	-1,22100122100122	1,22100122100122	
1,219	-2,39622063492063	-1,22100122100122	3,66300366300365	1,22100122100122	
1,22	-2,39622063492063	3,66300366300365	18,3150183150183	1,22100122100122	
1,221	-2,39622063492063	3,66300366300365	8,54700854700852	1,22100122100122	
1,222	-1,65255274725274	8,54700854700852	8,54700854700852	1,22100122100122	
1,223	-2,39622063492063	-1,22100122100122	3,66300366300365	1,22100122100122	
1,224	-2,39622063492063	3,66300366300365	-15,8730158730158	6,10500610500608	
1,225	-1,65255274725274	3,66300366300365	-30,5250305250304	-3,66300366300365	
1,226	-1,65255274725274	-1,22100122100122	-30,5250305250304	-3,66300366300365	
1,227	-2,39622063492063	-6,10500610500608	-35,4090354090353	-3,66300366300365	
1,228	-2,39622063492063	-1,22100122100122	-52,5030525030523	1,22100122100122	
1,229	-2,39622063492063	3,66300366300365	-30,5250305250304	1,22100122100122	
1,23	-1,65255274725274	3,66300366300365	-10,989010989011	-3,66300366300365	
1,231	-1,65255274725274	3,66300366300365	18,3150183150183	-3,66300366300365	
1,232	-2,39622063492063	3,66300366300365	37,8510378510377	6,10500610500608	
1,233	-1,65255274725274	3,66300366300365	37,8510378510377	1,22100122100122	
1,234	-2,39622063492063	-1,22100122100122	23,1990231990231	1,22100122100122	
1,235	-1,65255274725274	-1,22100122100122	8,54700854700852	1,22100122100122	
1,236	-1,65255274725274	3,66300366300365	13,4310134310134	6,10500610500608	
1,237	-1,65255274725274	8,54700854700852	18,3150183150183	6,10500610500608	
1,238	-1,65255274725274	3,66300366300365	3,66300366300365	6,10500610500608	
1,239	-1,65255274725274	3,66300366300365	-6,10500610500608	6,10500610500608	
1,24	-1,65255274725274	3,66300366300365	-10,989010989011	6,10500610500608	
1,241	-2,39622063492063	8,54700854700852	-15,8730158730158	6,10500610500608	
1,242	-1,65255274725274	3,66300366300365	-15,8730158730158	1,22100122100122	
1,243	-1,65255274725274	3,66300366300365	-15,8730158730158	-3,66300366300365	
1,244	-1,65255274725274	-1,22100122100122	-15,8730158730158	-3,66300366300365	
1,245	-1,65255274725274	-1,22100122100122	-15,8730158730158	-8,54700854700852	
1,246	-1,65255274725274	-10,989010989011	3,66300366300365	-8,54700854700852	
1,247	-1,65255274725274	-10,989010989011	-1,22100122100122	-13,4310134310134	
1,248	-1,65255274725274	-10,989010989011	-6,10500610500608	-8,54700854700852	
1,249	-1,65255274725274	-6,10500610500608	8,54700854700852	-3,66300366300365	
1,25	-1,65255274725274	-1,22100122100122	23,1990231990231	-3,66300366300365	
1,251	-1,65255274725274	3,66300366300365	3,66300366300365	1,22100122100122	
1,252	-1,65255274725274	3,66300366300365	-6,10500610500608	6,10500610500608	
1,253	-1,65255274725274	8,54700854700852	-15,8730158730158	6,10500610500608	
1,254	-1,65255274725274	8,54700854700852	-15,8730158730158	6,10500610500608	
1,255	-1,65255274725274	3,66300366300365	-10,989010989011	-3,66300366300365	
1,256	-1,65255274725274	3,66300366300365	-30,5250305250304	1,22100122100122	
1,257	-1,65255274725274	3,66300366300365	-30,5250305250304	6,10500610500608	
1,258	-1,65255274725274	3,66300366300365	-6,10500610500608	1,22100122100122	
1,259	-1,65255274725274	3,66300366300365	8,54700854700852	1,22100122100122	
1,26	-1,65255274725274	3,66300366300365	3,66300366300365	1,22100122100122	
1,261	-1,65255274725274	3,66300366300365	3,66300366300365	6,10500610500608	
1,262	-1,65255274725274	8,54700854700852	8,54700854700852	6,10500610500608	
1,263	-1,65255274725274	3,66300366300365	3,66300366300365	1,22100122100122	
1,264	-1,65255274725274	-6,10500610500608	8,54700854700852	-8,54700854700852	
1,265	-1,65255274725274	-15,8730158730158	8,54700854700852	-8,54700854700852	
1,266	-1,65255274725274	-6,10500610500608	8,54700854700852	6,10500610500608	
1,267	-1,65255274725274	-6,10500610500608	13,4310134310134	6,10500610500608	
1,268	-1,65255274725274	-1,22100122100122	18,3150183150183	10,989010989011	
1,269	-1,65255274725274	3,66300366300365	3,66300366300365	10,989010989011	
1,27	-1,65255274725274	-1,22100122100122	3,66300366300365	6,10500610500608	
1,271	-1,65255274725274	-6,10500610500608	-1,22100122100122	-3,66300366300365	
1,272	-1,65255274725274	-6,10500610500608	-1,22100122100122	-8,54700854700852	
1,273	-1,65255274725274	-1,22100122100122	3,66300366300365	-8,54700854700852	
1,274	-1,65255274725274	8,54700854700852	8,54700854700852	-3,66300366300365	
1,275	-1,65255274725274	3,66300366300365	13,4310134310134	-3,66300366300365	
1,276	-1,65255274725274	-1,22100122100122	8,54700854700852	-3,66300366300365	
1,277	-1,65255274725274	3,66300366300365	3,66300366300365	1,22100122100122	
1,278	-1,65255274725274	3,66300366300365	-1,22100122100122	6,10500610500608	
1,279	-1,65255274725274	8,54700854700852	-20,7570207570207	6,10500610500608	
1,28	-1,65255274725274	3,66300366300365	-20,7570207570207	1,22100122100122	
1,281	-1,65255274725274	-1,22100122100122	-30,5250305250304	1,22100122100122	
1,282	-1,65255274725274	3,66300366300365	-40,2930402930402	6,10500610500608	
1,283	-1,65255274725274	-1,22100122100122	-30,5250305250304	6,10500610500608	
1,284	-1,65255274725274	-6,10500610500608	-1,22100122100122	1,22100122100122	
1,285	-1,65255274725274	-1,22100122100122	-10,989010989011	1,22100122100122	
1,286	-1,65255274725274	-1,22100122100122	-10,989010989011	1,22100122100122	
1,287	-1,65255274725274	3,66300366300365	18,3150183150183	1,22100122100122	
1,288	-1,65255274725274	3,66300366300365	47,6190476190475	-3,66300366300365	
1,289	-1,65255274725274	-1,22100122100122	28,083028083028	1,22100122100122	
1,29	-1,65255274725274	-6,10500610500608	-1,22100122100122	-3,66300366300365	
1,291	-1,65255274725274	-1,22100122100122	-25,6410256410256	-3,66300366300365	
1,292	-1,65255274725274	3,66300366300365	-30,5250305250304	-8,54700854700852	
1,293	-1,65255274725274	-1,22100122100122	-10,989010989011	-3,66300366300365	
1,294	-1,65255274725274	3,66300366300365	-1,22100122100122	1,22100122100122	
1,295	-1,65255274725274	3,66300366300365	-10,989010989011	6,10500610500608	
1,296	-1,65255274725274	3,66300366300365	-6,10500610500608	1,22100122100122	
1,297	-2,39622063492063	3,66300366300365	3,66300366300365	1,22100122100122	
1,298	-1,65255274725274	-1,22100122100122	8,54700854700852	1,22100122100122	
1,299	-1,65255274725274	-1,22100122100122	18,3150183150183	1,22100122100122	
1,3	-1,65255274725274	3,66300366300365	13,4310134310134	1,22100122100122	
1,301	-1,65255274725274	3,66300366300365	8,54700854700852	1,22100122100122	
1,302	-1,65255274725274	3,66300366300365	8,54700854700852	10,989010989011	
1,303	-1,65255274725274	8,54700854700852	18,3150183150183	10,989010989011	
1,304	-1,65255274725274	8,54700854700852	18,3150183150183	6,10500610500608	
1,305	-1,65255274725274	-1,22100122100122	3,66300366300365	1,22100122100122	
1,306	-1,65255274725274	-6,10500610500608	-10,989010989011	-3,66300366300365	
1,307	-1,65255274725274	-6,10500610500608	-25,6410256410256	1,22100122100122	
1,308	-1,65255274725274	-6,10500610500608	-15,8730158730158	-3,66300366300365	
1,309	-1,65255274725274	-1,22100122100122	-15,8730158730158	-3,66300366300365	
1,31	-1,65255274725274	-10,989010989011	-10,989010989011	-3,66300366300365	
1,311	-1,65255274725274	-1,22100122100122	-10,989010989011	-3,66300366300365	
1,312	-1,65255274725274	3,66300366300365	3,66300366300365	-3,66300366300365	
1,313	-1,65255274725274	3,66300366300365	8,54700854700852	-3,66300366300365	
1,314	-1,65255274725274	3,66300366300365	3,66300366300365	1,22100122100122	
1,315	-1,65255274725274	-1,22100122100122	3,66300366300365	-3,66300366300365	
1,316	-1,65255274725274	-6,10500610500608	3,66300366300365	-3,66300366300365	
1,317	-1,65255274725274	-6,10500610500608	-6,10500610500608	-8,54700854700852	
1,318	-1,65255274725274	-1,22100122100122	-10,989010989011	-3,66300366300365	
1,319	-1,65255274725274	3,66300366300365	-10,989010989011	-3,66300366300365	
1,32	-1,65255274725274	8,54700854700852	-10,989010989011	6,10500610500608	
1,321	-1,65255274725274	8,54700854700852	3,66300366300365	6,10500610500608	
1,322	-1,65255274725274	3,66300366300365	23,1990231990231	6,10500610500608	
1,323	-1,65255274725274	-1,22100122100122	13,4310134310134	6,10500610500608	
1,324	-1,65255274725274	8,54700854700852	-1,22100122100122	6,10500610500608	
1,325	-1,65255274725274	3,66300366300365	-1,22100122100122	1,22100122100122	
1,326	-1,65255274725274	-1,22100122100122	-10,989010989011	1,22100122100122	
1,327	-1,65255274725274	3,66300366300365	-15,8730158730158	6,10500610500608	
1,328	-1,65255274725274	-1,22100122100122	-6,10500610500608	6,10500610500608	
1,329	-1,65255274725274	3,66300366300365	-6,10500610500608	6,10500610500608	
1,33	-1,65255274725274	-1,22100122100122	3,66300366300365	1,22100122100122	
1,331	-1,65255274725274	3,66300366300365	18,3150183150183	-3,66300366300365	
1,332	-1,65255274725274	3,66300366300365	13,4310134310134	-3,66300366300365	
1,333	-1,65255274725274	3,66300366300365	3,66300366300365	-3,66300366300365	
1,334	-1,65255274725274	-1,22100122100122	-1,22100122100122	-3,66300366300365	
1,335	-1,65255274725274	-1,22100122100122	-6,10500610500608	-3,66300366300365	
1,336	-1,65255274725274	-1,22100122100122	-15,8730158730158	1,22100122100122	
1,337	-1,65255274725274	3,66300366300365	-10,989010989011	1,22100122100122	
1,338	-1,65255274725274	3,66300366300365	8,54700854700852	6,10500610500608	
1,339	-1,65255274725274	8,54700854700852	3,66300366300365	6,10500610500608	
1,34	-1,65255274725274	3,66300366300365	-20,7570207570207	6,10500610500608	
1,341	-1,65255274725274	-1,22100122100122	-10,989010989011	1,22100122100122	
1,342	-1,65255274725274	-6,10500610500608	-30,5250305250304	1,22100122100122	
1,343	-1,65255274725274	-6,10500610500608	-25,6410256410256	-3,66300366300365	
1,344	-1,65255274725274	-1,22100122100122	-1,22100122100122	-8,54700854700852	
1,345	-1,65255274725274	3,66300366300365	-40,2930402930402	1,22100122100122	
1,346	-1,65255274725274	3,66300366300365	-40,2930402930402	1,22100122100122	
1,347	-1,65255274725274	3,66300366300365	3,66300366300365	-3,66300366300365	
1,348	-1,65255274725274	-6,10500610500608	13,4310134310134	-3,66300366300365	
1,349	-1,65255274725274	-1,22100122100122	28,083028083028	-3,66300366300365	
1,35	-1,65255274725274	-6,10500610500608	42,7350427350426	-8,54700854700852	
1,351	-1,65255274725274	-6,10500610500608	13,4310134310134	-3,66300366300365	
1,352	-1,65255274725274	-1,22100122100122	8,54700854700852	-3,66300366300365	
1,353	-1,65255274725274	3,66300366300365	32,9670329670329	1,22100122100122	
1,354	-1,65255274725274	3,66300366300365	32,9670329670329	6,10500610500608	
1,355	-1,65255274725274	-1,22100122100122	8,54700854700852	6,10500610500608	
1,356	-1,65255274725274	-6,10500610500608	-6,10500610500608	1,22100122100122	
1,357	-1,65255274725274	3,66300366300365	-6,10500610500608	6,10500610500608	
1,358	-1,65255274725274	3,66300366300365	-25,6410256410256	6,10500610500608	
1,359	-1,65255274725274	3,66300366300365	-15,8730158730158	6,10500610500608	
1,36	-1,65255274725274	3,66300366300365	-10,989010989011	6,10500610500608	
1,361	-1,65255274725274	3,66300366300365	-10,989010989011	6,10500610500608	
1,362	-1,65255274725274	3,66300366300365	-1,22100122100122	6,10500610500608	
1,363	-1,65255274725274	8,54700854700852	8,54700854700852	-8,54700854700852	
1,364	-1,65255274725274	3,66300366300365	-15,8730158730158	-8,54700854700852	
1,365	-1,65255274725274	3,66300366300365	-25,6410256410256	1,22100122100122	
1,366	-1,65255274725274	3,66300366300365	-10,989010989011	1,22100122100122	
1,367	-1,65255274725274	-10,989010989011	-10,989010989011	-8,54700854700852	
1,368	-1,65255274725274	-6,10500610500608	-6,10500610500608	-3,66300366300365	
1,369	-1,65255274725274	3,66300366300365	8,54700854700852	6,10500610500608	
1,37	-1,65255274725274	3,66300366300365	3,66300366300365	10,989010989011	
1,371	-1,65255274725274	-1,22100122100122	3,66300366300365	6,10500610500608	
1,372	-1,65255274725274	-6,10500610500608	-6,10500610500608	6,10500610500608	
1,373	-1,65255274725274	-10,989010989011	-1,22100122100122	1,22100122100122	
1,374	-1,65255274725274	-10,989010989011	-1,22100122100122	-3,66300366300365	
1,375	-1,65255274725274	-1,22100122100122	3,66300366300365	-3,66300366300365	
1,376	-1,65255274725274	3,66300366300365	3,66300366300365	-3,66300366300365	
1,377	-1,65255274725274	8,54700854700852	3,66300366300365	-3,66300366300365	
1,378	-1,65255274725274	3,66300366300365	-1,22100122100122	-3,66300366300365	
1,379	-1,65255274725274	3,66300366300365	18,3150183150183	-3,66300366300365	
1,38	-1,65255274725274	3,66300366300365	18,3150183150183	-3,66300366300365	
1,381	-1,65255274725274	3,66300366300365	13,4310134310134	1,22100122100122	
1,382	-1,65255274725274	3,66300366300365	-1,22100122100122	1,22100122100122	
1,383	-1,65255274725274	3,66300366300365	-6,10500610500608	1,22100122100122	
1,384	-1,65255274725274	3,66300366300365	-15,8730158730158	1,22100122100122	
1,385	-1,65255274725274	3,66300366300365	-20,7570207570207	1,22100122100122	
1,386	-1,65255274725274	-1,22100122100122	-30,5250305250304	1,22100122100122	
1,387	-1,65255274725274	-6,10500610500608	-40,2930402930402	-3,66300366300365	
1,388	-1,65255274725274	-6,10500610500608	-25,6410256410256	1,22100122100122	
1,389	-1,65255274725274	-6,10500610500608	-10,989010989011	1,22100122100122	
1,39	-1,65255274725274	-6,10500610500608	3,66300366300365	1,22100122100122	
1,391	-1,65255274725274	3,66300366300365	8,54700854700852	1,22100122100122	
1,392	-1,65255274725274	3,66300366300365	8,54700854700852	1,22100122100122	
1,393	-1,65255274725274	3,66300366300365	8,54700854700852	1,22100122100122	
1,394	-1,65255274725274	8,54700854700852	3,66300366300365	6,10500610500608	
1,395	-1,65255274725274	8,54700854700852	3,66300366300365	6,10500610500608	
1,396	-1,65255274725274	3,66300366300365	8,54700854700852	6,10500610500608	
1,397	-1,65255274725274	-1,22100122100122	8,54700854700852	1,22100122100122	
1,398	-1,65255274725274	-6,10500610500608	8,54700854700852	-3,66300366300365	
1,399	-1,65255274725274	-1,22100122100122	3,66300366300365	1,22100122100122	
1,4	-1,65255274725274	3,66300366300365	8,54700854700852	1,22100122100122	
1,401	-1,65255274725274	-1,22100122100122	8,54700854700852	1,22100122100122	
1,402	-1,65255274725274	8,54700854700852	-1,22100122100122	6,10500610500608	
1,403	-1,65255274725274	3,66300366300365	-10,989010989011	6,10500610500608	
1,404	-1,65255274725274	8,54700854700852	-10,989010989011	6,10500610500608	
1,405	-1,65255274725274	3,66300366300365	13,4310134310134	1,22100122100122	
1,406	-1,65255274725274	3,66300366300365	18,3150183150183	1,22100122100122	
1,407	-1,65255274725274	3,66300366300365	23,1990231990231	1,22100122100122	
1,408	-1,65255274725274	-1,22100122100122	18,3150183150183	1,22100122100122	
1,409	-1,65255274725274	-1,22100122100122	3,66300366300365	-3,66300366300365	
1,41	-1,65255274725274	-6,10500610500608	-10,989010989011	-3,66300366300365	
1,411	-1,65255274725274	-1,22100122100122	-20,7570207570207	1,22100122100122	
1,412	-1,65255274725274	3,66300366300365	-52,5030525030523	-3,66300366300365	
1,413	-1,65255274725274	-1,22100122100122	-62,2710622710621	-8,54700854700852	
1,414	-1,65255274725274	-6,10500610500608	-57,3870573870572	-8,54700854700852	
1,415	-1,65255274725274	-1,22100122100122	-62,2710622710621	-3,66300366300365	
1,416	-1,65255274725274	-1,22100122100122	-10,989010989011	-8,54700854700852	
1,417	-1,65255274725274	-10,989010989011	23,1990231990231	1,22100122100122	
1,418	-1,65255274725274	-1,22100122100122	28,083028083028	6,10500610500608	
1,419	-1,65255274725274	3,66300366300365	18,3150183150183	6,10500610500608	
1,42	-1,65255274725274	3,66300366300365	28,083028083028	10,989010989011	
1,421	-1,65255274725274	3,66300366300365	42,7350427350426	6,10500610500608	
1,422	-1,65255274725274	-1,22100122100122	47,6190476190475	6,10500610500608	
1,423	-1,65255274725274	-1,22100122100122	13,4310134310134	6,10500610500608	
1,424	-1,65255274725274	3,66300366300365	-1,22100122100122	6,10500610500608	
1,425	-1,65255274725274	-1,22100122100122	-10,989010989011	-3,66300366300365	
1,426	-1,65255274725274	-1,22100122100122	-1,22100122100122	-3,66300366300365	
1,427	-1,65255274725274	-1,22100122100122	-10,989010989011	-3,66300366300365	
1,428	-1,65255274725274	3,66300366300365	-10,989010989011	1,22100122100122	
1,429	-1,65255274725274	3,66300366300365	-10,989010989011	1,22100122100122	
1,43	-1,65255274725274	-1,22100122100122	-6,10500610500608	1,22100122100122	
1,431	-1,65255274725274	-1,22100122100122	3,66300366300365	1,22100122100122	
1,432	-0,908884859584856	-6,10500610500608	13,4310134310134	-3,66300366300365	
1,433	-0,908884859584856	-10,989010989011	23,1990231990231	-3,66300366300365	
1,434	-0,908884859584856	-10,989010989011	8,54700854700852	-8,54700854700852	
1,435	-1,65255274725274	-1,22100122100122	13,4310134310134	1,22100122100122	
1,436	-0,908884859584856	3,66300366300365	8,54700854700852	6,10500610500608	
1,437	-0,908884859584856	8,54700854700852	3,66300366300365	10,989010989011	
1,438	-1,65255274725274	8,54700854700852	-15,8730158730158	10,989010989011	
1,439	-1,65255274725274	-1,22100122100122	-30,5250305250304	1,22100122100122	
1,44	-1,65255274725274	-6,10500610500608	-40,2930402930402	-3,66300366300365	
1,441	-1,65255274725274	-1,22100122100122	-40,2930402930402	-8,54700854700852	
1,442	-1,65255274725274	-1,22100122100122	-20,7570207570207	-3,66300366300365	
1,443	-0,908884859584856	3,66300366300365	-10,989010989011	6,10500610500608	
1,444	-1,65255274725274	3,66300366300365	-20,7570207570207	6,10500610500608	
1,445	-1,65255274725274	3,66300366300365	-20,7570207570207	6,10500610500608	
1,446	-1,65255274725274	8,54700854700852	3,66300366300365	6,10500610500608	
1,447	-0,908884859584856	8,54700854700852	18,3150183150183	1,22100122100122	
1,448	-0,908884859584856	3,66300366300365	18,3150183150183	1,22100122100122	
1,449	-1,65255274725274	-1,22100122100122	8,54700854700852	1,22100122100122	
1,45	-1,65255274725274	3,66300366300365	8,54700854700852	-3,66300366300365	
1,451	-1,65255274725274	3,66300366300365	8,54700854700852	-3,66300366300365	
1,452	-0,908884859584856	3,66300366300365	8,54700854700852	-8,54700854700852	
1,453	-1,65255274725274	3,66300366300365	8,54700854700852	-3,66300366300365	
1,454	-0,908884859584856	3,66300366300365	8,54700854700852	-3,66300366300365	
1,455	-1,65255274725274	3,66300366300365	23,1990231990231	1,22100122100122	
1,456	-1,65255274725274	-6,10500610500608	28,083028083028	1,22100122100122	
1,457	-0,908884859584856	-6,10500610500608	32,9670329670329	1,22100122100122	
1,458	-1,65255274725274	-6,10500610500608	13,4310134310134	-3,66300366300365	
1,459	-1,65255274725274	-10,989010989011	-6,10500610500608	1,22100122100122	
1,46	-1,65255274725274	-6,10500610500608	-25,6410256410256	1,22100122100122	
1,461	-1,65255274725274	-6,10500610500608	-25,6410256410256	1,22100122100122	
1,462	-1,65255274725274	3,66300366300365	-20,7570207570207	1,22100122100122	
1,463	-1,65255274725274	3,66300366300365	-40,2930402930402	6,10500610500608	
1,464	-1,65255274725274	3,66300366300365	-40,2930402930402	1,22100122100122	
1,465	-1,65255274725274	3,66300366300365	-45,177045177045	-3,66300366300365	
1,466	-1,65255274725274	8,54700854700852	-1,22100122100122	1,22100122100122	
1,467	-1,65255274725274	3,66300366300365	-6,10500610500608	1,22100122100122	
1,468	-1,65255274725274	-1,22100122100122	-10,989010989011	6,10500610500608	
1,469	-1,65255274725274	-1,22100122100122	-20,7570207570207	6,10500610500608	
1,47	-1,65255274725274	3,66300366300365	3,66300366300365	6,10500610500608	
1,471	-1,65255274725274	3,66300366300365	23,1990231990231	1,22100122100122	
1,472	-1,65255274725274	3,66300366300365	18,3150183150183	1,22100122100122	
1,473	-1,65255274725274	3,66300366300365	32,9670329670329	-8,54700854700852	
1,474	-1,65255274725274	3,66300366300365	18,3150183150183	-8,54700854700852	
1,475	-1,65255274725274	-6,10500610500608	8,54700854700852	-8,54700854700852	
1,476	-1,65255274725274	-1,22100122100122	23,1990231990231	6,10500610500608	
1,477	-1,65255274725274	-1,22100122100122	18,3150183150183	10,989010989011	
1,478	-1,65255274725274	-1,22100122100122	8,54700854700852	10,989010989011	
1,479	-1,65255274725274	3,66300366300365	-1,22100122100122	10,989010989011	
1,48	-1,65255274725274	-1,22100122100122	-10,989010989011	6,10500610500608	
1,481	-1,65255274725274	-1,22100122100122	-20,7570207570207	-3,66300366300365	
1,482	-0,908884859584856	3,66300366300365	-25,6410256410256	-3,66300366300365	
1,483	-1,65255274725274	3,66300366300365	-30,5250305250304	-3,66300366300365	
1,484	-1,65255274725274	-1,22100122100122	-15,8730158730158	-3,66300366300365	
1,485	-1,65255274725274	-1,22100122100122	8,54700854700852	-3,66300366300365	
1,486	-1,65255274725274	-1,22100122100122	8,54700854700852	-8,54700854700852	
1,487	-1,65255274725274	3,66300366300365	3,66300366300365	1,22100122100122	
1,488	-1,65255274725274	3,66300366300365	-6,10500610500608	1,22100122100122	
1,489	-1,65255274725274	3,66300366300365	-6,10500610500608	6,10500610500608	
1,49	-1,65255274725274	3,66300366300365	-10,989010989011	6,10500610500608	
1,491	-1,65255274725274	-1,22100122100122	-6,10500610500608	-3,66300366300365	
1,492	-1,65255274725274	-10,989010989011	3,66300366300365	-8,54700854700852	
1,493	-1,65255274725274	-6,10500610500608	8,54700854700852	-3,66300366300365	
1,494	-1,65255274725274	3,66300366300365	-1,22100122100122	1,22100122100122	
1,495	-1,65255274725274	8,54700854700852	-1,22100122100122	6,10500610500608	
1,496	-1,65255274725274	3,66300366300365	3,66300366300365	6,10500610500608	
1,497	-1,65255274725274	-1,22100122100122	-1,22100122100122	6,10500610500608	
1,498	-1,65255274725274	-1,22100122100122	3,66300366300365	1,22100122100122	
1,499	-1,65255274725274	3,66300366300365	3,66300366300365	1,22100122100122	
1,5	-1,65255274725274	3,66300366300365	3,66300366300365	-3,66300366300365	
1,501	-1,65255274725274	3,66300366300365	-1,22100122100122	-3,66300366300365	
1,502	-1,65255274725274	3,66300366300365	-6,10500610500608	1,22100122100122	
1,503	-1,65255274725274	3,66300366300365	-1,22100122100122	6,10500610500608	
1,504	-0,908884859584856	3,66300366300365	-15,8730158730158	6,10500610500608	
1,505	-1,65255274725274	3,66300366300365	-6,10500610500608	1,22100122100122	
1,506	-1,65255274725274	3,66300366300365	13,4310134310134	1,22100122100122	
1,507	-1,65255274725274	-1,22100122100122	3,66300366300365	6,10500610500608	
1,508	-1,65255274725274	3,66300366300365	-10,989010989011	1,22100122100122	
1,509	-1,65255274725274	-1,22100122100122	-15,8730158730158	-3,66300366300365	
1,51	-0,908884859584856	-1,22100122100122	-10,989010989011	1,22100122100122	
1,511	-1,65255274725274	3,66300366300365	-6,10500610500608	1,22100122100122	
1,512	-1,65255274725274	8,54700854700852	3,66300366300365	6,10500610500608	
1,513	-0,908884859584856	8,54700854700852	-15,8730158730158	-3,66300366300365	
1,514	-1,65255274725274	3,66300366300365	-25,6410256410256	-3,66300366300365	
1,515	-1,65255274725274	-10,989010989011	8,54700854700852	-3,66300366300365	
1,516	-0,908884859584856	-6,10500610500608	18,3150183150183	-3,66300366300365	
1,517	-0,908884859584856	-10,989010989011	8,54700854700852	-8,54700854700852	
1,518	-1,65255274725274	-10,989010989011	8,54700854700852	-3,66300366300365	
1,519	-1,65255274725274	-6,10500610500608	8,54700854700852	-3,66300366300365	
1,52	-1,65255274725274	-6,10500610500608	23,1990231990231	-3,66300366300365	
1,521	-1,65255274725274	-1,22100122100122	18,3150183150183	-8,54700854700852	
1,522	-1,65255274725274	-1,22100122100122	8,54700854700852	-3,66300366300365	
1,523	-0,908884859584856	3,66300366300365	3,66300366300365	6,10500610500608	
1,524	-0,908884859584856	3,66300366300365	-1,22100122100122	6,10500610500608	
1,525	-0,908884859584856	-1,22100122100122	-1,22100122100122	6,10500610500608	
1,526	-0,908884859584856	3,66300366300365	-10,989010989011	6,10500610500608	
1,527	-0,908884859584856	3,66300366300365	-30,5250305250304	6,10500610500608	
1,528	-1,65255274725274	8,54700854700852	-6,10500610500608	6,10500610500608	
1,529	-0,908884859584856	8,54700854700852	-10,989010989011	10,989010989011	
1,53	-0,908884859584856	3,66300366300365	-15,8730158730158	6,10500610500608	
1,531	-1,65255274725274	3,66300366300365	-20,7570207570207	-3,66300366300365	
1,532	-0,908884859584856	-1,22100122100122	-30,5250305250304	1,22100122100122	
1,533	-0,908884859584856	-1,22100122100122	-10,989010989011	-8,54700854700852	
1,534	-1,65255274725274	-6,10500610500608	-1,22100122100122	-3,66300366300365	
1,535	-1,65255274725274	-6,10500610500608	-15,8730158730158	-3,66300366300365	
1,536	-1,65255274725274	-6,10500610500608	-1,22100122100122	1,22100122100122	
1,537	-1,65255274725274	-1,22100122100122	37,8510378510377	6,10500610500608	
1,538	-1,65255274725274	3,66300366300365	28,083028083028	6,10500610500608	
1,539	-1,65255274725274	3,66300366300365	8,54700854700852	1,22100122100122	
1,54	-1,65255274725274	3,66300366300365	-1,22100122100122	1,22100122100122	
1,541	-0,908884859584856	3,66300366300365	3,66300366300365	1,22100122100122	
1,542	-1,65255274725274	-1,22100122100122	-6,10500610500608	-3,66300366300365	
1,543	-1,65255274725274	-6,10500610500608	-10,989010989011	-3,66300366300365	
1,544	-0,908884859584856	-1,22100122100122	-25,6410256410256	-3,66300366300365	
1,545	-0,908884859584856	3,66300366300365	-35,4090354090353	1,22100122100122	
1,546	-0,908884859584856	3,66300366300365	-15,8730158730158	1,22100122100122	
1,547	-1,65255274725274	-1,22100122100122	-6,10500610500608	-3,66300366300365	
1,548	-1,65255274725274	-1,22100122100122	8,54700854700852	1,22100122100122	
1,549	-0,908884859584856	-1,22100122100122	13,4310134310134	6,10500610500608	
1,55	-1,65255274725274	-1,22100122100122	8,54700854700852	1,22100122100122	
1,551	-1,65255274725274	-6,10500610500608	3,66300366300365	-3,66300366300365	
1,552	-1,65255274725274	-1,22100122100122	13,4310134310134	1,22100122100122	
1,553	-1,65255274725274	3,66300366300365	8,54700854700852	6,10500610500608	
1,554	-1,65255274725274	8,54700854700852	3,66300366300365	6,10500610500608	
1,555	-1,65255274725274	3,66300366300365	3,66300366300365	1,22100122100122	
1,556	-1,65255274725274	-6,10500610500608	3,66300366300365	-3,66300366300365	
